{
  "aor": 0.008236266666666667,
  "aqi": 0.004011827466666666,
  "bids_meta": {
    "ConversionSoftware": "dcm2niix",
    "ConversionSoftwareVersion": "v1.0.20170207",
    "EchoTime": 0.0302,
    "EffectiveEchoSpacing": 0.000640002,
    "FlipAngle": 90,
    "ImageType": [
      "ORIGINAL",
      "PRIMARY",
      "M",
      "MB",
      "ND",
      "MOSAIC"
    ],
    "MagneticFieldStrength": 3,
    "Manufacturer": "Siemens",
    "ManufacturersModelName": "Prisma",
    "PhaseEncodingDirection": "j-",
    "ProcedureStepDescription": "CAMRIS_CHOP",
    "ProtocolName": "BOLD_resting1",
    "RepetitionTime": 2,
    "SliceTiming": [
      0,
      0.08,
      0.1575,
      0.2375,
      0.3175,
      0.3975,
      0.475,
      0.555,
      0.635,
      0.7125,
      0.7925,
      0.8725,
      0.95,
      1.03,
      1.11,
      1.1875,
      1.2675,
      1.3475,
      1.425,
      1.505,
      1.585,
      1.6625,
      1.7425,
      1.8225,
      1.9,
      0,
      0.08,
      0.1575,
      0.2375,
      0.3175,
      0.3975,
      0.475,
      0.555,
      0.635,
      0.7125,
      0.7925,
      0.8725,
      0.95,
      1.03,
      1.11,
      1.1875,
      1.2675,
      1.3475,
      1.425,
      1.505,
      1.585,
      1.6625,
      1.7425,
      1.8225,
      1.9,
      0,
      0.08,
      0.1575,
      0.2375,
      0.3175,
      0.3975,
      0.475,
      0.555,
      0.635,
      0.7125,
      0.7925,
      0.8725,
      0.95,
      1.03,
      1.11,
      1.1875,
      1.2675,
      1.3475,
      1.425,
      1.505,
      1.585,
      1.6625,
      1.7425,
      1.8225,
      1.9
    ],
    "TaskName": "piper",
    "dataset": "ds004228",
    "dcmmeta_affine": [
      [
        -2.0,
        0.0,
        0.0,
        96.0
      ],
      [
        0.0,
        2.0,
        0.0,
        -72.91600036621094
      ],
      [
        0.0,
        0.0,
        2.0,
        -26.40959930419922
      ],
      [
        0.0,
        0.0,
        0.0,
        1.0
      ]
    ],
    "dcmmeta_reorient_transform": [
      [
        0.0,
        -1.0,
        0.0,
        95.0
      ],
      [
        1.0,
        0.0,
        0.0,
        0.0
      ],
      [
        0.0,
        0.0,
        1.0,
        0.0
      ],
      [
        0.0,
        0.0,
        0.0,
        1.0
      ]
    ],
    "dcmmeta_shape": [
      96,
      96,
      75,
      150
    ],
    "dcmmeta_slice_dim": 2,
    "dcmmeta_version": 0.6,
    "global": {
      "const": {
        "AcquisitionMatrix": [
          96,
          0,
          0,
          96
        ],
        "AngioFlag": "N",
        "BitsAllocated": 16,
        "BitsStored": 16,
        "BodyPartExamined": "BRAIN",
        "CardiacNumberOfImages": 1,
        "Columns": 864,
        "EchoNumbers": 1,
        "EchoTime": 30.2,
        "EchoTrainLength": 84,
        "FlipAngle": 90.0,
        "HighBit": 15,
        "ImageOrientationPatient": [
          1.0,
          0.0,
          0.0,
          0.0,
          1.0,
          0.0
        ],
        "ImagePositionPatient": [
          -864.0,
          -885.084,
          -26.4096
        ],
        "ImageType": [
          "ORIGINAL",
          "PRIMARY",
          "M",
          "MB",
          "ND",
          "MOSAIC"
        ],
        "ImagedNucleus": "1H",
        "ImagingFrequency": 123.255,
        "InPlanePhaseEncodingDirection": "COL",
        "MRAcquisitionType": "2D",
        "MagneticFieldStrength": 3.0,
        "Manufacturer": "SIEMENS",
        "ManufacturerModelName": "Prisma",
        "Modality": "MR",
        "NominalInterval": 0,
        "NumberOfAverages": 1.0,
        "NumberOfFrames": 1,
        "NumberOfPhaseEncodingSteps": 84,
        "PercentPhaseFieldOfView": 100.0,
        "PercentSampling": 100.0,
        "PerformedProcedureStepStartTime": "125552.044000",
        "PhotometricInterpretation": "MONOCHROME2",
        "PixelBandwidth": 1860.0,
        "PixelRepresentation": 0,
        "PixelSpacing": [
          2.0,
          2.0
        ],
        "ProtocolName": "BOLD_resting1",
        "RepetitionTime": 2000.0,
        "Rows": 864,
        "SAR": 0.185422,
        "SamplesPerPixel": 1,
        "ScanOptions": [
          "PFP",
          "FS",
          "EXT"
        ],
        "ScanningSequence": "EP",
        "SequenceName": "epfid2d1_96",
        "SequenceVariant": [
          "SK",
          "SS"
        ],
        "SeriesDescription": "BOLD_resting1",
        "SeriesNumber": 19,
        "SeriesTime": "135313.485000",
        "SliceLocation": -26.4096,
        "SliceThickness": 2.0,
        "SmallestImagePixelValue": 0,
        "SoftwareVersions": "syngo MR E11",
        "SpacingBetweenSlices": 2.0,
        "SpecificCharacterSet": "ISO_IR 100",
        "StudyID": "1",
        "StudyTime": "125551.951000",
        "TransmitCoilName": "Body",
        "VariableFlipAngleFlag": "N",
        "WindowCenterWidthExplanation": "Algo1",
        "dBdt": 0.0
      },
      "slices": {}
    },
    "modality": "bold",
    "run_id": 1,
    "session_id": "01",
    "subject_id": "63",
    "task_id": "piper",
    "time": {
      "samples": {
        "AcquisitionNumber": [
          1,
          2,
          3,
          4,
          5,
          6,
          7,
          8,
          9,
          10,
          11,
          12,
          13,
          14,
          15,
          16,
          17,
          18,
          19,
          20,
          21,
          22,
          23,
          24,
          25,
          26,
          27,
          28,
          29,
          30,
          31,
          32,
          33,
          34,
          35,
          36,
          37,
          38,
          39,
          40,
          41,
          42,
          43,
          44,
          45,
          46,
          47,
          48,
          49,
          50,
          51,
          52,
          53,
          54,
          55,
          56,
          57,
          58,
          59,
          60,
          61,
          62,
          63,
          64,
          65,
          66,
          67,
          68,
          69,
          70,
          71,
          72,
          73,
          74,
          75,
          76,
          77,
          78,
          79,
          80,
          81,
          82,
          83,
          84,
          85,
          86,
          87,
          88,
          89,
          90,
          91,
          92,
          93,
          94,
          95,
          96,
          97,
          98,
          99,
          100,
          101,
          102,
          103,
          104,
          105,
          106,
          107,
          108,
          109,
          110,
          111,
          112,
          113,
          114,
          115,
          116,
          117,
          118,
          119,
          120,
          121,
          122,
          123,
          124,
          125,
          126,
          127,
          128,
          129,
          130,
          131,
          132,
          133,
          134,
          135,
          136,
          137,
          138,
          139,
          140,
          141,
          142,
          143,
          144,
          145,
          146,
          147,
          148,
          149,
          150
        ],
        "AcquisitionTime": [
          "135311.172500",
          "135313.172500",
          "135315.172500",
          "135317.172500",
          "135319.172500",
          "135321.172500",
          "135323.172500",
          "135325.172500",
          "135327.172500",
          "135329.172500",
          "135331.172500",
          "135333.172500",
          "135335.172500",
          "135337.172500",
          "135339.172500",
          "135341.172500",
          "135343.172500",
          "135345.172500",
          "135347.172500",
          "135349.172500",
          "135351.172500",
          "135353.172500",
          "135355.172500",
          "135357.172500",
          "135359.172500",
          "135401.172500",
          "135403.172500",
          "135405.172500",
          "135407.172500",
          "135409.172500",
          "135411.172500",
          "135413.172500",
          "135415.172500",
          "135417.172500",
          "135419.172500",
          "135421.172500",
          "135423.172500",
          "135425.172500",
          "135427.172500",
          "135429.172500",
          "135431.172500",
          "135433.172500",
          "135435.172500",
          "135437.172500",
          "135439.172500",
          "135441.172500",
          "135443.172500",
          "135445.172500",
          "135447.172500",
          "135449.172500",
          "135451.172500",
          "135453.172500",
          "135455.172500",
          "135457.172500",
          "135459.172500",
          "135501.172500",
          "135503.172500",
          "135505.172500",
          "135507.172500",
          "135509.172500",
          "135511.172500",
          "135513.172500",
          "135515.172500",
          "135517.172500",
          "135519.172500",
          "135521.172500",
          "135523.172500",
          "135525.172500",
          "135527.172500",
          "135529.172500",
          "135531.172500",
          "135533.172500",
          "135535.172500",
          "135537.172500",
          "135539.172500",
          "135541.172500",
          "135543.172500",
          "135545.172500",
          "135547.172500",
          "135549.172500",
          "135551.172500",
          "135553.172500",
          "135555.172500",
          "135557.172500",
          "135559.172500",
          "135601.172500",
          "135603.172500",
          "135605.172500",
          "135607.172500",
          "135609.172500",
          "135611.172500",
          "135613.172500",
          "135615.172500",
          "135617.172500",
          "135619.172500",
          "135621.172500",
          "135623.172500",
          "135625.172500",
          "135627.172500",
          "135629.172500",
          "135631.172500",
          "135633.172500",
          "135635.172500",
          "135637.172500",
          "135639.172500",
          "135641.172500",
          "135643.172500",
          "135645.172500",
          "135647.172500",
          "135649.172500",
          "135651.172500",
          "135653.172500",
          "135655.172500",
          "135657.172500",
          "135659.172500",
          "135701.172500",
          "135703.172500",
          "135705.172500",
          "135707.172500",
          "135709.172500",
          "135711.172500",
          "135713.172500",
          "135715.172500",
          "135717.172500",
          "135719.172500",
          "135721.172500",
          "135723.172500",
          "135725.172500",
          "135727.172500",
          "135729.172500",
          "135731.172500",
          "135733.172500",
          "135735.172500",
          "135737.172500",
          "135739.172500",
          "135741.172500",
          "135743.172500",
          "135745.172500",
          "135747.172500",
          "135749.172500",
          "135751.172500",
          "135753.172500",
          "135755.172500",
          "135757.172500",
          "135759.172500",
          "135801.172500",
          "135803.172500",
          "135805.172500",
          "135807.172500",
          "135809.172500"
        ],
        "ContentTime": [
          "135313.488000",
          "135315.484000",
          "135317.484000",
          "135319.484000",
          "135321.484000",
          "135323.484000",
          "135325.484000",
          "135327.484000",
          "135329.484000",
          "135331.484000",
          "135333.484000",
          "135335.484000",
          "135337.484000",
          "135339.484000",
          "135341.484000",
          "135343.484000",
          "135345.484000",
          "135347.484000",
          "135349.484000",
          "135351.485000",
          "135353.484000",
          "135355.484000",
          "135357.484000",
          "135359.484000",
          "135401.484000",
          "135403.484000",
          "135405.484000",
          "135407.484000",
          "135409.484000",
          "135411.484000",
          "135413.484000",
          "135415.484000",
          "135417.484000",
          "135419.484000",
          "135421.484000",
          "135423.484000",
          "135425.484000",
          "135427.484000",
          "135429.484000",
          "135431.484000",
          "135433.484000",
          "135435.484000",
          "135437.484000",
          "135439.484000",
          "135441.484000",
          "135443.485000",
          "135445.484000",
          "135447.484000",
          "135449.484000",
          "135451.484000",
          "135453.484000",
          "135455.484000",
          "135457.484000",
          "135459.484000",
          "135501.485000",
          "135503.484000",
          "135505.484000",
          "135507.484000",
          "135509.484000",
          "135511.484000",
          "135513.484000",
          "135515.484000",
          "135517.484000",
          "135519.484000",
          "135521.484000",
          "135523.484000",
          "135525.484000",
          "135527.484000",
          "135529.484000",
          "135531.484000",
          "135533.484000",
          "135535.484000",
          "135537.484000",
          "135539.484000",
          "135541.500000",
          "135543.484000",
          "135545.484000",
          "135547.484000",
          "135549.484000",
          "135551.484000",
          "135553.485000",
          "135555.484000",
          "135557.484000",
          "135559.484000",
          "135601.484000",
          "135603.484000",
          "135605.484000",
          "135607.484000",
          "135609.484000",
          "135611.485000",
          "135613.484000",
          "135615.484000",
          "135617.484000",
          "135619.484000",
          "135621.484000",
          "135623.484000",
          "135625.484000",
          "135627.484000",
          "135629.484000",
          "135631.484000",
          "135633.484000",
          "135635.484000",
          "135637.485000",
          "135639.484000",
          "135641.484000",
          "135643.484000",
          "135645.484000",
          "135647.484000",
          "135649.484000",
          "135651.484000",
          "135653.484000",
          "135655.484000",
          "135657.485000",
          "135659.484000",
          "135701.484000",
          "135703.485000",
          "135705.484000",
          "135707.485000",
          "135709.484000",
          "135711.484000",
          "135713.484000",
          "135715.484000",
          "135717.485000",
          "135719.484000",
          "135721.485000",
          "135723.484000",
          "135725.484000",
          "135727.484000",
          "135729.484000",
          "135731.484000",
          "135733.484000",
          "135735.484000",
          "135737.484000",
          "135739.484000",
          "135741.484000",
          "135743.484000",
          "135745.484000",
          "135747.484000",
          "135749.484000",
          "135751.484000",
          "135753.484000",
          "135755.484000",
          "135757.484000",
          "135759.484000",
          "135801.484000",
          "135803.484000",
          "135805.484000",
          "135807.484000",
          "135809.484000",
          "135811.484000"
        ],
        "InstanceCreationTime": [
          "135313.488000",
          "135315.484000",
          "135317.484000",
          "135319.484000",
          "135321.484000",
          "135323.484000",
          "135325.484000",
          "135327.484000",
          "135329.484000",
          "135331.484000",
          "135333.484000",
          "135335.484000",
          "135337.484000",
          "135339.484000",
          "135341.484000",
          "135343.484000",
          "135345.484000",
          "135347.484000",
          "135349.484000",
          "135351.485000",
          "135353.484000",
          "135355.484000",
          "135357.484000",
          "135359.484000",
          "135401.484000",
          "135403.484000",
          "135405.484000",
          "135407.484000",
          "135409.484000",
          "135411.484000",
          "135413.484000",
          "135415.484000",
          "135417.484000",
          "135419.484000",
          "135421.484000",
          "135423.484000",
          "135425.484000",
          "135427.484000",
          "135429.484000",
          "135431.484000",
          "135433.484000",
          "135435.484000",
          "135437.484000",
          "135439.484000",
          "135441.484000",
          "135443.485000",
          "135445.484000",
          "135447.484000",
          "135449.484000",
          "135451.484000",
          "135453.484000",
          "135455.484000",
          "135457.484000",
          "135459.484000",
          "135501.485000",
          "135503.484000",
          "135505.484000",
          "135507.484000",
          "135509.484000",
          "135511.484000",
          "135513.484000",
          "135515.484000",
          "135517.484000",
          "135519.484000",
          "135521.484000",
          "135523.484000",
          "135525.484000",
          "135527.484000",
          "135529.484000",
          "135531.484000",
          "135533.484000",
          "135535.484000",
          "135537.484000",
          "135539.484000",
          "135541.500000",
          "135543.484000",
          "135545.484000",
          "135547.484000",
          "135549.484000",
          "135551.484000",
          "135553.485000",
          "135555.484000",
          "135557.484000",
          "135559.484000",
          "135601.484000",
          "135603.484000",
          "135605.484000",
          "135607.484000",
          "135609.484000",
          "135611.485000",
          "135613.484000",
          "135615.484000",
          "135617.484000",
          "135619.484000",
          "135621.484000",
          "135623.484000",
          "135625.484000",
          "135627.484000",
          "135629.484000",
          "135631.484000",
          "135633.484000",
          "135635.484000",
          "135637.485000",
          "135639.484000",
          "135641.484000",
          "135643.484000",
          "135645.484000",
          "135647.484000",
          "135649.484000",
          "135651.484000",
          "135653.484000",
          "135655.484000",
          "135657.485000",
          "135659.484000",
          "135701.484000",
          "135703.485000",
          "135705.484000",
          "135707.485000",
          "135709.484000",
          "135711.484000",
          "135713.484000",
          "135715.484000",
          "135717.485000",
          "135719.484000",
          "135721.485000",
          "135723.484000",
          "135725.484000",
          "135727.484000",
          "135729.484000",
          "135731.484000",
          "135733.484000",
          "135735.484000",
          "135737.484000",
          "135739.484000",
          "135741.484000",
          "135743.484000",
          "135745.484000",
          "135747.484000",
          "135749.484000",
          "135751.484000",
          "135753.484000",
          "135755.484000",
          "135757.484000",
          "135759.484000",
          "135801.484000",
          "135803.484000",
          "135805.484000",
          "135807.484000",
          "135809.484000",
          "135811.484000"
        ],
        "InstanceNumber": [
          1,
          2,
          3,
          4,
          5,
          6,
          7,
          8,
          9,
          10,
          11,
          12,
          13,
          14,
          15,
          16,
          17,
          18,
          19,
          20,
          21,
          22,
          23,
          24,
          25,
          26,
          27,
          28,
          29,
          30,
          31,
          32,
          33,
          34,
          35,
          36,
          37,
          38,
          39,
          40,
          41,
          42,
          43,
          44,
          45,
          46,
          47,
          48,
          49,
          50,
          51,
          52,
          53,
          54,
          55,
          56,
          57,
          58,
          59,
          60,
          61,
          62,
          63,
          64,
          65,
          66,
          67,
          68,
          69,
          70,
          71,
          72,
          73,
          74,
          75,
          76,
          77,
          78,
          79,
          80,
          81,
          82,
          83,
          84,
          85,
          86,
          87,
          88,
          89,
          90,
          91,
          92,
          93,
          94,
          95,
          96,
          97,
          98,
          99,
          100,
          101,
          102,
          103,
          104,
          105,
          106,
          107,
          108,
          109,
          110,
          111,
          112,
          113,
          114,
          115,
          116,
          117,
          118,
          119,
          120,
          121,
          122,
          123,
          124,
          125,
          126,
          127,
          128,
          129,
          130,
          131,
          132,
          133,
          134,
          135,
          136,
          137,
          138,
          139,
          140,
          141,
          142,
          143,
          144,
          145,
          146,
          147,
          148,
          149,
          150
        ],
        "LargestImagePixelValue": [
          36625,
          35748,
          35447,
          35145,
          36018,
          35425,
          35707,
          35329,
          35573,
          35681,
          35672,
          35273,
          35332,
          35215,
          35271,
          35171,
          35927,
          35259,
          34959,
          35493,
          35428,
          35453,
          35562,
          35359,
          35155,
          35415,
          35519,
          35465,
          35237,
          35236,
          35019,
          35866,
          35317,
          35684,
          35365,
          35395,
          36198,
          36094,
          35940,
          35676,
          36071,
          35960,
          35449,
          35577,
          35928,
          35625,
          35441,
          35028,
          35472,
          35239,
          35675,
          36088,
          35937,
          35332,
          35454,
          35490,
          35635,
          35618,
          35650,
          35290,
          35811,
          32304,
          35114,
          33785,
          33126,
          32960,
          32985,
          34231,
          35032,
          34516,
          34874,
          35807,
          35067,
          34930,
          36381,
          36607,
          36197,
          35823,
          36759,
          35363,
          34464,
          34544,
          34871,
          34834,
          35343,
          35279,
          35100,
          35414,
          35378,
          35277,
          34993,
          35144,
          34865,
          35164,
          35531,
          35463,
          35355,
          35452,
          35552,
          35470,
          35462,
          35517,
          35248,
          35324,
          35246,
          35492,
          35545,
          35266,
          35526,
          35407,
          35319,
          35382,
          35197,
          35304,
          35238,
          35734,
          35211,
          35655,
          35318,
          35514,
          35614,
          35732,
          35855,
          35358,
          35385,
          36114,
          36004,
          35534,
          35584,
          35574,
          35626,
          35652,
          35583,
          36320,
          36068,
          35864,
          35744,
          36032,
          36228,
          36039,
          35966,
          35921,
          35936,
          35761,
          35626,
          35885,
          35626,
          35276,
          35155,
          36882
        ],
        "TriggerTime": [
          11677.5,
          13677.5,
          15677.5,
          17677.5,
          19677.5,
          21677.5,
          23677.5,
          25677.5,
          27677.5,
          29677.5,
          31677.5,
          33677.5,
          35677.5,
          37677.5,
          39677.5,
          41677.5,
          43677.5,
          45677.5,
          47677.5,
          49677.5,
          51677.5,
          53677.5,
          55677.5,
          57677.5,
          59677.5,
          61677.5,
          63677.5,
          65677.5,
          67677.5,
          69677.5,
          71677.5,
          73677.5,
          75677.5,
          77677.5,
          79677.5,
          81677.5,
          83677.5,
          85677.5,
          87677.5,
          89677.5,
          91677.5,
          93677.5,
          95677.5,
          97677.5,
          99677.5,
          101678.0,
          103678.0,
          105678.0,
          107678.0,
          109678.0,
          111678.0,
          113678.0,
          115678.0,
          117678.0,
          119678.0,
          121678.0,
          123678.0,
          125678.0,
          127678.0,
          129678.0,
          131678.0,
          133678.0,
          135678.0,
          137678.0,
          139678.0,
          141678.0,
          143678.0,
          145678.0,
          147678.0,
          149678.0,
          151678.0,
          153678.0,
          155678.0,
          157678.0,
          159678.0,
          161678.0,
          163678.0,
          165678.0,
          167678.0,
          169678.0,
          171678.0,
          173678.0,
          175678.0,
          177678.0,
          179678.0,
          181678.0,
          183678.0,
          185678.0,
          187678.0,
          189678.0,
          191678.0,
          193678.0,
          195678.0,
          197678.0,
          199678.0,
          201678.0,
          203678.0,
          205678.0,
          207678.0,
          209678.0,
          211678.0,
          213678.0,
          215678.0,
          217678.0,
          219678.0,
          221678.0,
          223678.0,
          225678.0,
          227678.0,
          229678.0,
          231678.0,
          233678.0,
          235678.0,
          237678.0,
          239678.0,
          241678.0,
          243678.0,
          245678.0,
          247678.0,
          249678.0,
          251678.0,
          253678.0,
          255678.0,
          257678.0,
          259678.0,
          261678.0,
          263678.0,
          265678.0,
          267678.0,
          269678.0,
          271678.0,
          273678.0,
          275678.0,
          277678.0,
          279678.0,
          281678.0,
          283678.0,
          285678.0,
          287678.0,
          289678.0,
          291678.0,
          293678.0,
          295678.0,
          297678.0,
          299678.0,
          301678.0,
          303678.0,
          305678.0,
          307678.0,
          309678.0
        ],
        "WindowCenter": [
          9482.0,
          9466.0,
          9467.0,
          9470.0,
          9488.0,
          9469.0,
          9469.0,
          9470.0,
          9472.0,
          9469.0,
          9462.0,
          9461.0,
          9454.0,
          9453.0,
          9452.0,
          9452.0,
          9466.0,
          9469.0,
          9465.0,
          9470.0,
          9469.0,
          9469.0,
          9469.0,
          9464.0,
          9477.0,
          9470.0,
          9461.0,
          9463.0,
          9463.0,
          9455.0,
          9462.0,
          9484.0,
          9480.0,
          9479.0,
          9480.0,
          9489.0,
          9496.0,
          9488.0,
          9487.0,
          9482.0,
          9486.0,
          9479.0,
          9486.0,
          9490.0,
          9497.0,
          9491.0,
          9489.0,
          9483.0,
          9479.0,
          9491.0,
          9514.0,
          9511.0,
          9496.0,
          9490.0,
          9481.0,
          9472.0,
          9488.0,
          9500.0,
          9492.0,
          9493.0,
          9508.0,
          9263.0,
          9410.0,
          9423.0,
          9401.0,
          9386.0,
          9403.0,
          9450.0,
          9447.0,
          9458.0,
          9474.0,
          9479.0,
          9464.0,
          9466.0,
          9500.0,
          9474.0,
          9481.0,
          9485.0,
          9498.0,
          9412.0,
          9428.0,
          9430.0,
          9413.0,
          9418.0,
          9434.0,
          9427.0,
          9445.0,
          9461.0,
          9461.0,
          9447.0,
          9448.0,
          9455.0,
          9440.0,
          9453.0,
          9480.0,
          9472.0,
          9463.0,
          9486.0,
          9481.0,
          9472.0,
          9463.0,
          9470.0,
          9458.0,
          9462.0,
          9480.0,
          9471.0,
          9462.0,
          9464.0,
          9462.0,
          9463.0,
          9472.0,
          9480.0,
          9466.0,
          9474.0,
          9483.0,
          9480.0,
          9474.0,
          9488.0,
          9474.0,
          9466.0,
          9474.0,
          9473.0,
          9464.0,
          9464.0,
          9478.0,
          9484.0,
          9479.0,
          9488.0,
          9492.0,
          9481.0,
          9480.0,
          9494.0,
          9489.0,
          9492.0,
          9478.0,
          9478.0,
          9486.0,
          9495.0,
          9487.0,
          9485.0,
          9485.0,
          9478.0,
          9477.0,
          9476.0,
          9473.0,
