{
  "aor": 0.0007149333333333333,
  "aqi": 0.0047774208,
  "bids_meta": {
    "ConversionSoftware": "dcm2niix",
    "ConversionSoftwareVersion": "v1.0.20170207",
    "EchoTime": 0.0302,
    "EffectiveEchoSpacing": 0.000640002,
    "FlipAngle": 90,
    "ImageType": [
      "ORIGINAL",
      "PRIMARY",
      "M",
      "MB",
      "ND",
      "MOSAIC"
    ],
    "MagneticFieldStrength": 3,
    "Manufacturer": "Siemens",
    "ManufacturersModelName": "Prisma",
    "PhaseEncodingDirection": "j-",
    "ProcedureStepDescription": "CAMRIS_CHOP",
    "ProtocolName": "BOLD_resting1",
    "RepetitionTime": 2,
    "SliceTiming": [
      0,
      0.0775,
      0.1575,
      0.2375,
      0.315,
      0.395,
      0.475,
      0.5525,
      0.6325,
      0.7125,
      0.79,
      0.87,
      0.95,
      1.0275,
      1.1075,
      1.1875,
      1.265,
      1.345,
      1.425,
      1.5025,
      1.5825,
      1.6625,
      1.74,
      1.82,
      1.9,
      0,
      0.0775,
      0.1575,
      0.2375,
      0.315,
      0.395,
      0.475,
      0.5525,
      0.6325,
      0.7125,
      0.79,
      0.87,
      0.95,
      1.0275,
      1.1075,
      1.1875,
      1.265,
      1.345,
      1.425,
      1.5025,
      1.5825,
      1.6625,
      1.74,
      1.82,
      1.9,
      0,
      0.0775,
      0.1575,
      0.2375,
      0.315,
      0.395,
      0.475,
      0.5525,
      0.6325,
      0.7125,
      0.79,
      0.87,
      0.95,
      1.0275,
      1.1075,
      1.1875,
      1.265,
      1.345,
      1.425,
      1.5025,
      1.5825,
      1.6625,
      1.74,
      1.82,
      1.9
    ],
    "TaskName": "piper",
    "dataset": "ds004228",
    "dcmmeta_affine": [
      [
        -2.0,
        0.0,
        0.0,
        98.41000366210938
      ],
      [
        0.0,
        2.0,
        0.0,
        -87.37300109863281
      ],
      [
        0.0,
        0.0,
        2.0,
        -50.50600051879883
      ],
      [
        0.0,
        0.0,
        0.0,
        1.0
      ]
    ],
    "dcmmeta_reorient_transform": [
      [
        0.0,
        -1.0,
        0.0,
        95.0
      ],
      [
        1.0,
        0.0,
        0.0,
        0.0
      ],
      [
        0.0,
        0.0,
        1.0,
        0.0
      ],
      [
        0.0,
        0.0,
        0.0,
        1.0
      ]
    ],
    "dcmmeta_shape": [
      96,
      96,
      75,
      150
    ],
    "dcmmeta_slice_dim": 2,
    "dcmmeta_version": 0.6,
    "global": {
      "const": {
        "AcquisitionMatrix": [
          96,
          0,
          0,
          96
        ],
        "AngioFlag": "N",
        "BitsAllocated": 16,
        "BitsStored": 16,
        "BodyPartExamined": "BRAIN",
        "CardiacNumberOfImages": 1,
        "Columns": 864,
        "EchoNumbers": 1,
        "EchoTime": 30.2,
        "EchoTrainLength": 84,
        "FlipAngle": 90.0,
        "HighBit": 15,
        "ImageOrientationPatient": [
          1.0,
          0.0,
          0.0,
          0.0,
          1.0,
          0.0
        ],
        "ImagePositionPatient": [
          -866.41,
          -870.627,
          -50.506
        ],
        "ImageType": [
          "ORIGINAL",
          "PRIMARY",
          "M",
          "MB",
          "ND",
          "MOSAIC"
        ],
        "ImagedNucleus": "1H",
        "ImagingFrequency": 123.255,
        "InPlanePhaseEncodingDirection": "COL",
        "MRAcquisitionType": "2D",
        "MagneticFieldStrength": 3.0,
        "Manufacturer": "SIEMENS",
        "ManufacturerModelName": "Prisma",
        "Modality": "MR",
        "NominalInterval": 0,
        "NumberOfAverages": 1.0,
        "NumberOfFrames": 1,
        "NumberOfPhaseEncodingSteps": 84,
        "PercentPhaseFieldOfView": 100.0,
        "PercentSampling": 100.0,
        "PerformedProcedureStepStartTime": "140654.470000",
        "PhotometricInterpretation": "MONOCHROME2",
        "PixelBandwidth": 1860.0,
        "PixelRepresentation": 0,
        "PixelSpacing": [
          2.0,
          2.0
        ],
        "ProtocolName": "BOLD_resting1",
        "RepetitionTime": 2000.0,
        "Rows": 864,
        "SAR": 0.0956346,
        "SamplesPerPixel": 1,
        "ScanOptions": [
          "PFP",
          "FS",
          "EXT"
        ],
        "ScanningSequence": "EP",
        "SequenceName": "epfid2d1_96",
        "SequenceVariant": [
          "SK",
          "SS"
        ],
        "SeriesDescription": "BOLD_resting1",
        "SeriesNumber": 14,
        "SeriesTime": "144114.750000",
        "SliceLocation": -50.506,
        "SliceThickness": 2.0,
        "SmallestImagePixelValue": 0,
        "SoftwareVersions": "syngo MR E11",
        "SpacingBetweenSlices": 2.0,
        "SpecificCharacterSet": "ISO_IR 100",
        "StudyID": "1",
        "StudyTime": "140654.407000",
        "TransmitCoilName": "Body",
        "VariableFlipAngleFlag": "N",
        "WindowCenterWidthExplanation": "Algo1",
        "dBdt": 0.0
      },
      "slices": {}
    },
    "modality": "bold",
    "run_id": 1,
    "session_id": "01",
    "subject_id": "31",
    "task_id": "piper",
    "time": {
      "samples": {
        "AcquisitionNumber": [
          1,
          2,
          3,
          4,
          5,
          6,
          7,
          8,
          9,
          10,
          11,
          12,
          13,
          14,
          15,
          16,
          17,
          18,
          19,
          20,
          21,
          22,
          23,
          24,
          25,
          26,
          27,
          28,
          29,
          30,
          31,
          32,
          33,
          34,
          35,
          36,
          37,
          38,
          39,
          40,
          41,
          42,
          43,
          44,
          45,
          46,
          47,
          48,
          49,
          50,
          51,
          52,
          53,
          54,
          55,
          56,
          57,
          58,
          59,
          60,
          61,
          62,
          63,
          64,
          65,
          66,
          67,
          68,
          69,
          70,
          71,
          72,
          73,
          74,
          75,
          76,
          77,
          78,
          79,
          80,
          81,
          82,
          83,
          84,
          85,
          86,
          87,
          88,
          89,
          90,
          91,
          92,
          93,
          94,
          95,
          96,
          97,
          98,
          99,
          100,
          101,
          102,
          103,
          104,
          105,
          106,
          107,
          108,
          109,
          110,
          111,
          112,
          113,
          114,
          115,
          116,
          117,
          118,
          119,
          120,
          121,
          122,
          123,
          124,
          125,
          126,
          127,
          128,
          129,
          130,
          131,
          132,
          133,
          134,
          135,
          136,
          137,
          138,
          139,
          140,
          141,
          142,
          143,
          144,
          145,
          146,
          147,
          148,
          149,
          150
        ],
        "AcquisitionTime": [
          "144111.957500",
          "144113.957500",
          "144115.957500",
          "144117.957500",
          "144119.957500",
          "144121.957500",
          "144123.957500",
          "144125.957500",
          "144127.957500",
          "144129.957500",
          "144131.957500",
          "144133.957500",
          "144135.957500",
          "144137.957500",
          "144139.957500",
          "144141.957500",
          "144143.957500",
          "144145.957500",
          "144147.957500",
          "144149.957500",
          "144151.957500",
          "144153.957500",
          "144155.957500",
          "144157.957500",
          "144159.957500",
          "144201.957500",
          "144203.957500",
          "144205.957500",
          "144207.957500",
          "144209.957500",
          "144211.957500",
          "144213.957500",
          "144215.957500",
          "144217.957500",
          "144219.957500",
          "144221.957500",
          "144223.957500",
          "144225.957500",
          "144227.957500",
          "144229.957500",
          "144231.957500",
          "144233.957500",
          "144235.957500",
          "144237.957500",
          "144239.957500",
          "144241.957500",
          "144243.957500",
          "144245.957500",
          "144247.957500",
          "144249.957500",
          "144251.957500",
          "144253.957500",
          "144255.957500",
          "144257.957500",
          "144259.957500",
          "144301.957500",
          "144303.957500",
          "144305.957500",
          "144307.957500",
          "144309.957500",
          "144311.957500",
          "144313.957500",
          "144315.957500",
          "144317.957500",
          "144319.957500",
          "144321.957500",
          "144323.957500",
          "144325.957500",
          "144327.957500",
          "144329.957500",
          "144331.957500",
          "144333.957500",
          "144335.957500",
          "144337.957500",
          "144339.957500",
          "144341.957500",
          "144343.957500",
          "144345.957500",
          "144347.957500",
          "144349.957500",
          "144351.957500",
          "144353.957500",
          "144355.957500",
          "144357.957500",
          "144359.957500",
          "144401.957500",
          "144403.957500",
          "144405.957500",
          "144407.957500",
          "144409.957500",
          "144411.957500",
          "144413.957500",
          "144415.957500",
          "144417.957500",
          "144419.957500",
          "144421.957500",
          "144423.957500",
          "144425.957500",
          "144427.957500",
          "144429.957500",
          "144431.957500",
          "144433.957500",
          "144435.957500",
          "144437.957500",
          "144439.957500",
          "144441.957500",
          "144443.957500",
          "144445.957500",
          "144447.957500",
          "144449.957500",
          "144451.957500",
          "144453.957500",
          "144455.957500",
          "144457.957500",
          "144459.957500",
          "144501.957500",
          "144503.957500",
          "144505.957500",
          "144507.957500",
          "144509.957500",
          "144511.957500",
          "144513.957500",
          "144515.957500",
          "144517.957500",
          "144519.957500",
          "144521.957500",
          "144523.957500",
          "144525.957500",
          "144527.957500",
          "144529.957500",
          "144531.957500",
          "144533.957500",
          "144535.957500",
          "144537.957500",
          "144539.957500",
          "144541.957500",
          "144543.957500",
          "144545.957500",
          "144547.957500",
          "144549.957500",
          "144551.957500",
          "144553.957500",
          "144555.957500",
          "144557.957500",
          "144559.957500",
          "144601.957500",
          "144603.957500",
          "144605.957500",
          "144607.957500",
          "144609.957500"
        ],
        "ContentTime": [
          "144114.754000",
          "144116.749000",
          "144118.750000",
          "144120.750000",
          "144122.750000",
          "144124.749000",
          "144126.749000",
          "144128.749000",
          "144130.749000",
          "144132.749000",
          "144134.749000",
          "144136.750000",
          "144138.750000",
          "144140.750000",
          "144142.749000",
          "144144.749000",
          "144146.749000",
          "144148.749000",
          "144150.749000",
          "144152.749000",
          "144154.750000",
          "144156.750000",
          "144158.750000",
          "144200.749000",
          "144202.749000",
          "144204.749000",
          "144206.749000",
          "144208.749000",
          "144210.750000",
          "144212.750000",
          "144214.750000",
          "144216.749000",
          "144218.749000",
          "144220.749000",
          "144222.749000",
          "144224.749000",
          "144226.749000",
          "144228.750000",
          "144230.750000",
          "144232.750000",
          "144234.749000",
          "144236.749000",
          "144238.749000",
          "144240.749000",
          "144242.749000",
          "144244.749000",
          "144246.750000",
          "144248.750000",
          "144250.750000",
          "144252.769000",
          "144254.749000",
          "144256.749000",
          "144258.749000",
          "144300.749000",
          "144302.749000",
          "144304.750000",
          "144306.750000",
          "144308.750000",
          "144310.749000",
          "144312.749000",
          "144314.749000",
          "144316.749000",
          "144318.749000",
          "144320.750000",
          "144322.750000",
          "144324.750000",
          "144326.749000",
          "144328.749000",
          "144330.749000",
          "144332.749000",
          "144334.749000",
          "144336.749000",
          "144338.750000",
          "144340.750000",
          "144342.750000",
          "144344.749000",
          "144346.749000",
          "144348.749000",
          "144350.749000",
          "144352.749000",
          "144354.749000",
          "144356.750000",
          "144358.750000",
          "144400.750000",
          "144402.749000",
          "144404.749000",
          "144406.749000",
          "144408.749000",
          "144410.749000",
          "144412.749000",
          "144414.750000",
          "144416.750000",
          "144418.750000",
          "144420.749000",
          "144422.749000",
          "144424.749000",
          "144426.749000",
          "144428.749000",
          "144430.750000",
          "144432.750000",
          "144434.750000",
          "144436.749000",
          "144438.749000",
          "144440.749000",
          "144442.749000",
          "144444.749000",
          "144446.768000",
          "144448.750000",
          "144450.750000",
          "144452.750000",
          "144454.749000",
          "144456.749000",
          "144458.749000",
          "144500.749000",
          "144502.749000",
          "144504.749000",
          "144506.750000",
          "144508.750000",
          "144510.750000",
          "144512.749000",
          "144514.749000",
          "144516.749000",
          "144518.749000",
          "144520.749000",
          "144522.749000",
          "144524.750000",
          "144526.750000",
          "144528.750000",
          "144530.749000",
          "144532.749000",
          "144534.749000",
          "144536.749000",
          "144538.749000",
          "144540.750000",
          "144542.750000",
          "144544.750000",
          "144546.749000",
          "144548.749000",
          "144550.749000",
          "144552.749000",
          "144554.749000",
          "144556.749000",
          "144558.750000",
          "144600.750000",
          "144602.750000",
          "144604.749000",
          "144606.749000",
          "144608.749000",
          "144610.749000",
          "144612.368000"
        ],
        "InstanceCreationTime": [
          "144114.754000",
          "144116.749000",
          "144118.750000",
          "144120.750000",
          "144122.750000",
          "144124.749000",
          "144126.749000",
          "144128.749000",
          "144130.749000",
          "144132.749000",
          "144134.749000",
          "144136.750000",
          "144138.750000",
          "144140.750000",
          "144142.749000",
          "144144.749000",
          "144146.749000",
          "144148.749000",
          "144150.749000",
          "144152.749000",
          "144154.750000",
          "144156.750000",
          "144158.750000",
          "144200.749000",
          "144202.749000",
          "144204.749000",
          "144206.749000",
          "144208.749000",
          "144210.750000",
          "144212.750000",
          "144214.750000",
          "144216.749000",
          "144218.749000",
          "144220.749000",
          "144222.749000",
          "144224.749000",
          "144226.749000",
          "144228.750000",
          "144230.750000",
          "144232.750000",
          "144234.749000",
          "144236.749000",
          "144238.749000",
          "144240.749000",
          "144242.749000",
          "144244.749000",
          "144246.750000",
          "144248.750000",
          "144250.750000",
          "144252.769000",
          "144254.749000",
          "144256.749000",
          "144258.749000",
          "144300.749000",
          "144302.749000",
          "144304.750000",
          "144306.750000",
          "144308.750000",
          "144310.749000",
          "144312.749000",
          "144314.749000",
          "144316.749000",
          "144318.749000",
          "144320.750000",
          "144322.750000",
          "144324.750000",
          "144326.749000",
          "144328.749000",
          "144330.749000",
          "144332.749000",
          "144334.749000",
          "144336.749000",
          "144338.750000",
          "144340.750000",
          "144342.750000",
          "144344.749000",
          "144346.749000",
          "144348.749000",
          "144350.749000",
          "144352.749000",
          "144354.749000",
          "144356.750000",
          "144358.750000",
          "144400.750000",
          "144402.749000",
          "144404.749000",
          "144406.749000",
          "144408.749000",
          "144410.749000",
          "144412.749000",
          "144414.750000",
          "144416.750000",
          "144418.750000",
          "144420.749000",
          "144422.749000",
          "144424.749000",
          "144426.749000",
          "144428.749000",
          "144430.750000",
          "144432.750000",
          "144434.750000",
          "144436.749000",
          "144438.749000",
          "144440.749000",
          "144442.749000",
          "144444.749000",
          "144446.768000",
          "144448.750000",
          "144450.750000",
          "144452.750000",
          "144454.749000",
          "144456.749000",
          "144458.749000",
          "144500.749000",
          "144502.749000",
          "144504.749000",
          "144506.750000",
          "144508.750000",
          "144510.750000",
          "144512.749000",
          "144514.749000",
          "144516.749000",
          "144518.749000",
          "144520.749000",
          "144522.749000",
          "144524.750000",
          "144526.750000",
          "144528.750000",
          "144530.749000",
          "144532.749000",
          "144534.749000",
          "144536.749000",
          "144538.749000",
          "144540.750000",
          "144542.750000",
          "144544.750000",
          "144546.749000",
          "144548.749000",
          "144550.749000",
          "144552.749000",
          "144554.749000",
          "144556.749000",
          "144558.750000",
          "144600.750000",
          "144602.750000",
          "144604.749000",
          "144606.749000",
          "144608.749000",
          "144610.749000",
          "144612.368000"
        ],
        "InstanceNumber": [
          1,
          2,
          3,
          4,
          5,
          6,
          7,
          8,
          9,
          10,
          11,
          12,
          13,
          14,
          15,
          16,
          17,
          18,
          19,
          20,
          21,
          22,
          23,
          24,
          25,
          26,
          27,
          28,
          29,
          30,
          31,
          32,
          33,
          34,
          35,
          36,
          37,
          38,
          39,
          40,
          41,
          42,
          43,
          44,
          45,
          46,
          47,
          48,
          49,
          50,
          51,
          52,
          53,
          54,
          55,
          56,
          57,
          58,
          59,
          60,
          61,
          62,
          63,
          64,
          65,
          66,
          67,
          68,
          69,
          70,
          71,
          72,
          73,
          74,
          75,
          76,
          77,
          78,
          79,
          80,
          81,
          82,
          83,
          84,
          85,
          86,
          87,
          88,
          89,
          90,
          91,
          92,
          93,
          94,
          95,
          96,
          97,
          98,
          99,
          100,
          101,
          102,
          103,
          104,
          105,
          106,
          107,
          108,
          109,
          110,
          111,
          112,
          113,
          114,
          115,
          116,
          117,
          118,
          119,
          120,
          121,
          122,
          123,
          124,
          125,
          126,
          127,
          128,
          129,
          130,
          131,
          132,
          133,
          134,
          135,
          136,
          137,
          138,
          139,
          140,
          141,
          142,
          143,
          144,
          145,
          146,
          147,
          148,
          149,
          150
        ],
        "LargestImagePixelValue": [
          29256,
          28957,
          29087,
          28260,
          28066,
          28063,
          28951,
          28306,
          28159,
          28466,
          28014,
          28588,
          29005,
          27922,
          28553,
          28916,
          28497,
          28015,
          28902,
          27911,
          27878,
          29348,
          28304,
          28020,
          28700,
          28378,
          28722,
          29295,
          27932,
          28124,
          28824,
          28300,
          28518,
          28447,
          28058,
          28986,
          28706,
          28152,
          28466,
          29350,
          28516,
          29077,
          28742,
          28135,
          28923,
          28261,
          28081,
          28821,
          28713,
          28624,
          28721,
          28661,
          28863,
          28388,
          29713,
          28771,
          28716,
          28834,
          28708,
          28590,
          28292,
          28594,
          28543,
          28396,
          28770,
          28380,
          29017,
          28359,
          28938,
          28006,
          28228,
          28066,
          27999,
          29424,
          28364,
          28892,
          28635,
          28252,
          28623,
          28940,
          28510,
          28277,
          28620,
          28738,
          28099,
          28431,
          28687,
          28138,
          28573,
          27755,
          28991,
          28177,
          28656,
          28725,
          28334,
          27965,
          27713,
          28965,
          27965,
          28588,
          28129,
          27904,
          28669,
          28259,
          28165,
          28367,
          27964,
          28621,
          28347,
          28323,
          27955,
          28696,
          28087,
          28714,
          28397,
          28187,
          28526,
          28158,
          27895,
          28743,
          28381,
          28252,
          28975,
          28222,
          28500,
          28853,
          28265,
          27883,
          28740,
          28345,
          28685,
          28465,
          28162,
          27979,
          27940,
          28101,
          27998,
          27783,
          28651,
          28347,
          28041,
          28024,
          27906,
          28753,
          28288,
          28361,
          28284,
          28260,
          28028,
          28628
        ],
        "TriggerTime": [
          11710.0,
          13710.0,
          15710.0,
          17710.0,
          19710.0,
          21710.0,
          23710.0,
          25710.0,
          27710.0,
          29710.0,
          31710.0,
          33710.0,
          35710.0,
          37710.0,
          39710.0,
          41710.0,
          43710.0,
          45710.0,
          47710.0,
          49710.0,
          51710.0,
          53710.0,
          55710.0,
          57710.0,
          59710.0,
          61710.0,
          63710.0,
          65710.0,
          67710.0,
          69710.0,
          71710.0,
          73710.0,
          75710.0,
          77710.0,
          79710.0,
          81710.0,
          83710.0,
          85710.0,
          87710.0,
          89710.0,
          91710.0,
          93710.0,
          95710.0,
          97710.0,
          99710.0,
          101710.0,
          103710.0,
          105710.0,
          107710.0,
          109710.0,
          111710.0,
          113710.0,
          115710.0,
          117710.0,
          119710.0,
          121710.0,
          123710.0,
          125710.0,
          127710.0,
          129710.0,
          131710.0,
          133710.0,
          135710.0,
          137710.0,
          139710.0,
          141710.0,
          143710.0,
          145710.0,
          147710.0,
          149710.0,
          151710.0,
          153710.0,
          155710.0,
          157710.0,
          159710.0,
          161710.0,
          163710.0,
          165710.0,
          167710.0,
          169710.0,
          171710.0,
          173710.0,
          175710.0,
          177710.0,
          179710.0,
          181710.0,
          183710.0,
          185710.0,
          187710.0,
          189710.0,
          191710.0,
          193710.0,
          195710.0,
          197710.0,
          199710.0,
          201710.0,
          203710.0,
          205710.0,
          207710.0,
          209710.0,
          211710.0,
          213710.0,
          215710.0,
          217710.0,
          219710.0,
          221710.0,
          223710.0,
          225710.0,
          227710.0,
          229710.0,
          231710.0,
          233710.0,
          235710.0,
          237710.0,
          239710.0,
          241710.0,
          243710.0,
          245710.0,
          247710.0,
          249710.0,
          251710.0,
          253710.0,
          255710.0,
          257710.0,
          259710.0,
          261710.0,
          263710.0,
          265710.0,
          267710.0,
          269710.0,
          271710.0,
          273710.0,
          275710.0,
          277710.0,
          279710.0,
          281710.0,
          283710.0,
          285710.0,
          287710.0,
          289710.0,
          291710.0,
          293710.0,
          295710.0,
          297710.0,
          299710.0,
          301710.0,
          303710.0,
          305710.0,
          307710.0,
          309710.0
        ],
        "WindowCenter": [
          8683.0,
          8668.0,
          8695.0,
          8664.0,
          8663.0,
          8675.0,
          8698.0,
          8683.0,
          8693.0,
          8710.0,
          8722.0,
          8682.0,
          8703.0,
          8693.0,
          8672.0,
          8696.0,
          8700.0,
          8662.0,
          8715.0,
          8717.0,
          8676.0,
          8719.0,
          8702.0,
          8682.0,
          8714.0,
          8690.0,
          8678.0,
          8700.0,
          8643.0,
          8678.0,
          8716.0,
          8680.0,
          8697.0,
          8708.0,
          8684.0,
          8705.0,
          8696.0,
          8654.0,
          8679.0,
          8720.0,
          8657.0,
          8669.0,
          8693.0,
          8672.0,
          8705.0,
          8701.0,
          8671.0,
          8705.0,
          8695.0,
          8681.0,
          8696.0,
          8662.0,
          8683.0,
          8699.0,
          8687.0,
          8665.0,
          8684.0,
          8677.0,
          8677.0,
          8691.0,
          8643.0,
          8677.0,
          8671.0,
          8642.0,
          8667.0,
          8681.0,
          8646.0,
          8674.0,
          8697.0,
          8655.0,
          8664.0,
          8674.0,
          8665.0,
          8673.0,
          8658.0,
          8658.0,
          8651.0,
          8672.0,
          8640.0,
          8676.0,
          8673.0,
          8635.0,
          8658.0,
          8644.0,
          8652.0,
          8699.0,
          8695.0,
          8656.0,
          8678.0,
          8664.0,
          8674.0,
          8651.0,
          8682.0,
          8689.0,
          8651.0,
          8634.0,
          8654.0,
          8666.0,
          8646.0,
          8665.0,
          8672.0,
          8656.0,
          8649.0,
          8682.0,
          8663.0,
          8652.0,
          8672.0,
          8671.0,
          8650.0,
          8670.0,
          8665.0,
          8638.0,
          8651.0,
          8654.0,
          8656.0,
          8690.0,
          8671.0,
          8679.0,
          8663.0,
          8658.0,
          8688.0,
          8674.0,
          8666.0,
          8679.0,
          8696.0,
          8689.0,
          8673.0,
          8684.0,
          8677.0,
          8692.0,
          8679.0,
          8681.0,
          8700.0,
          8688.0,
          8687.0,
          8713.0,
          8710.0,
          8660.0,
          8688.0,
          8699.0,
          8667.0,
          8656.0,
          8666.0,
          8710.0,
          8665.0,
