{
  "aor": 0.0012685333333333334,
  "aqi": 0.0033318797333333336,
  "bids_meta": {
    "ConversionSoftware": "dcm2niix",
    "ConversionSoftwareVersion": "v1.0.20170207",
    "EchoTime": 0.0302,
    "EffectiveEchoSpacing": 0.000640002,
    "FlipAngle": 90,
    "ImageType": [
      "ORIGINAL",
      "PRIMARY",
      "M",
      "MB",
      "ND",
      "MOSAIC"
    ],
    "MagneticFieldStrength": 3,
    "Manufacturer": "Siemens",
    "ManufacturersModelName": "Prisma",
    "PhaseEncodingDirection": "j-",
    "ProcedureStepDescription": "CAMRIS_CHOP",
    "ProtocolName": "BOLD_resting1",
    "RepetitionTime": 2,
    "SliceTiming": [
      0,
      0.08,
      0.16,
      0.2375,
      0.3175,
      0.3975,
      0.475,
      0.555,
      0.635,
      0.7125,
      0.7925,
      0.8725,
      0.95,
      1.03,
      1.11,
      1.1875,
      1.2675,
      1.3475,
      1.425,
      1.505,
      1.585,
      1.6625,
      1.7425,
      1.8225,
      1.9,
      0,
      0.08,
      0.16,
      0.2375,
      0.3175,
      0.3975,
      0.475,
      0.555,
      0.635,
      0.7125,
      0.7925,
      0.8725,
      0.95,
      1.03,
      1.11,
      1.1875,
      1.2675,
      1.3475,
      1.425,
      1.505,
      1.585,
      1.6625,
      1.7425,
      1.8225,
      1.9,
      0,
      0.08,
      0.16,
      0.2375,
      0.3175,
      0.3975,
      0.475,
      0.555,
      0.635,
      0.7125,
      0.7925,
      0.8725,
      0.95,
      1.03,
      1.11,
      1.1875,
      1.2675,
      1.3475,
      1.425,
      1.505,
      1.585,
      1.6625,
      1.7425,
      1.8225,
      1.9
    ],
    "TaskName": "piper",
    "dataset": "ds004228",
    "dcmmeta_affine": [
      [
        -2.0,
        0.0,
        0.0,
        100.09100341796875
      ],
      [
        0.0,
        2.0,
        0.0,
        -63.729000091552734
      ],
      [
        0.0,
        0.0,
        2.0,
        -24.912399291992188
      ],
      [
        0.0,
        0.0,
        0.0,
        1.0
      ]
    ],
    "dcmmeta_reorient_transform": [
      [
        0.0,
        -1.0,
        0.0,
        95.0
      ],
      [
        1.0,
        0.0,
        0.0,
        0.0
      ],
      [
        0.0,
        0.0,
        1.0,
        0.0
      ],
      [
        0.0,
        0.0,
        0.0,
        1.0
      ]
    ],
    "dcmmeta_shape": [
      96,
      96,
      75,
      150
    ],
    "dcmmeta_slice_dim": 2,
    "dcmmeta_version": 0.6,
    "global": {
      "const": {
        "AcquisitionMatrix": [
          96,
          0,
          0,
          96
        ],
        "AngioFlag": "N",
        "BitsAllocated": 16,
        "BitsStored": 16,
        "BodyPartExamined": "BRAIN",
        "CardiacNumberOfImages": 1,
        "Columns": 864,
        "EchoNumbers": 1,
        "EchoTime": 30.2,
        "EchoTrainLength": 84,
        "FlipAngle": 90.0,
        "HighBit": 15,
        "ImageOrientationPatient": [
          1.0,
          0.0,
          0.0,
          0.0,
          1.0,
          0.0
        ],
        "ImagePositionPatient": [
          -868.091,
          -894.271,
          -24.9124
        ],
        "ImageType": [
          "ORIGINAL",
          "PRIMARY",
          "M",
          "MB",
          "ND",
          "MOSAIC"
        ],
        "ImagedNucleus": "1H",
        "ImagingFrequency": 123.255,
        "InPlanePhaseEncodingDirection": "COL",
        "MRAcquisitionType": "2D",
        "MagneticFieldStrength": 3.0,
        "Manufacturer": "SIEMENS",
        "ManufacturerModelName": "Prisma",
        "Modality": "MR",
        "NominalInterval": 0,
        "NumberOfAverages": 1.0,
        "NumberOfFrames": 1,
        "NumberOfPhaseEncodingSteps": 84,
        "PercentPhaseFieldOfView": 100.0,
        "PercentSampling": 100.0,
        "PerformedProcedureStepStartTime": "131511.384000",
        "PhotometricInterpretation": "MONOCHROME2",
        "PixelBandwidth": 1860.0,
        "PixelRepresentation": 0,
        "PixelSpacing": [
          2.0,
          2.0
        ],
        "ProtocolName": "BOLD_resting1",
        "RepetitionTime": 2000.0,
        "Rows": 864,
        "SAR": 0.343117,
        "SamplesPerPixel": 1,
        "ScanOptions": [
          "PFP",
          "FS",
          "EXT"
        ],
        "ScanningSequence": "EP",
        "SequenceName": "epfid2d1_96",
        "SequenceVariant": [
          "SK",
          "SS"
        ],
        "SeriesDescription": "BOLD_resting1",
        "SeriesNumber": 14,
        "SeriesTime": "134950.628000",
        "SliceLocation": -24.9124,
        "SliceThickness": 2.0,
        "SmallestImagePixelValue": 0,
        "SoftwareVersions": "syngo MR E11",
        "SpacingBetweenSlices": 2.0,
        "SpecificCharacterSet": "ISO_IR 100",
        "StudyID": "1",
        "StudyTime": "131511.303000",
        "TransmitCoilName": "Body",
        "VariableFlipAngleFlag": "N",
        "WindowCenterWidthExplanation": "Algo1",
        "dBdt": 0.0
      },
      "slices": {}
    },
    "modality": "bold",
    "run_id": 1,
    "session_id": "01",
    "subject_id": "41",
    "task_id": "piper",
    "time": {
      "samples": {
        "AcquisitionNumber": [
          1,
          2,
          3,
          4,
          5,
          6,
          7,
          8,
          9,
          10,
          11,
          12,
          13,
          14,
          15,
          16,
          17,
          18,
          19,
          20,
          21,
          22,
          23,
          24,
          25,
          26,
          27,
          28,
          29,
          30,
          31,
          32,
          33,
          34,
          35,
          36,
          37,
          38,
          39,
          40,
          41,
          42,
          43,
          44,
          45,
          46,
          47,
          48,
          49,
          50,
          51,
          52,
          53,
          54,
          55,
          56,
          57,
          58,
          59,
          60,
          61,
          62,
          63,
          64,
          65,
          66,
          67,
          68,
          69,
          70,
          71,
          72,
          73,
          74,
          75,
          76,
          77,
          78,
          79,
          80,
          81,
          82,
          83,
          84,
          85,
          86,
          87,
          88,
          89,
          90,
          91,
          92,
          93,
          94,
          95,
          96,
          97,
          98,
          99,
          100,
          101,
          102,
          103,
          104,
          105,
          106,
          107,
          108,
          109,
          110,
          111,
          112,
          113,
          114,
          115,
          116,
          117,
          118,
          119,
          120,
          121,
          122,
          123,
          124,
          125,
          126,
          127,
          128,
          129,
          130,
          131,
          132,
          133,
          134,
          135,
          136,
          137,
          138,
          139,
          140,
          141,
          142,
          143,
          144,
          145,
          146,
          147,
          148,
          149,
          150
        ],
        "AcquisitionTime": [
          "134947.632500",
          "134949.632500",
          "134951.632500",
          "134953.632500",
          "134955.632500",
          "134957.632500",
          "134959.632500",
          "135001.632500",
          "135003.632500",
          "135005.632500",
          "135007.632500",
          "135009.632500",
          "135011.632500",
          "135013.632500",
          "135015.632500",
          "135017.632500",
          "135019.632500",
          "135021.632500",
          "135023.632500",
          "135025.632500",
          "135027.632500",
          "135029.632500",
          "135031.632500",
          "135033.632500",
          "135035.632500",
          "135037.632500",
          "135039.632500",
          "135041.632500",
          "135043.632500",
          "135045.632500",
          "135047.632500",
          "135049.632500",
          "135051.632500",
          "135053.632500",
          "135055.632500",
          "135057.632500",
          "135059.632500",
          "135101.632500",
          "135103.632500",
          "135105.632500",
          "135107.632500",
          "135109.632500",
          "135111.632500",
          "135113.632500",
          "135115.632500",
          "135117.632500",
          "135119.632500",
          "135121.632500",
          "135123.632500",
          "135125.632500",
          "135127.632500",
          "135129.632500",
          "135131.632500",
          "135133.632500",
          "135135.632500",
          "135137.632500",
          "135139.632500",
          "135141.632500",
          "135143.632500",
          "135145.632500",
          "135147.632500",
          "135149.632500",
          "135151.632500",
          "135153.632500",
          "135155.632500",
          "135157.632500",
          "135159.632500",
          "135201.632500",
          "135203.632500",
          "135205.632500",
          "135207.632500",
          "135209.632500",
          "135211.632500",
          "135213.632500",
          "135215.632500",
          "135217.632500",
          "135219.632500",
          "135221.632500",
          "135223.632500",
          "135225.632500",
          "135227.632500",
          "135229.632500",
          "135231.632500",
          "135233.632500",
          "135235.632500",
          "135237.632500",
          "135239.632500",
          "135241.632500",
          "135243.632500",
          "135245.632500",
          "135247.632500",
          "135249.632500",
          "135251.632500",
          "135253.632500",
          "135255.632500",
          "135257.632500",
          "135259.632500",
          "135301.632500",
          "135303.632500",
          "135305.632500",
          "135307.632500",
          "135309.632500",
          "135311.632500",
          "135313.632500",
          "135315.632500",
          "135317.632500",
          "135319.632500",
          "135321.632500",
          "135323.632500",
          "135325.632500",
          "135327.632500",
          "135329.632500",
          "135331.632500",
          "135333.632500",
          "135335.632500",
          "135337.632500",
          "135339.632500",
          "135341.632500",
          "135343.632500",
          "135345.632500",
          "135347.632500",
          "135349.632500",
          "135351.632500",
          "135353.632500",
          "135355.632500",
          "135357.632500",
          "135359.632500",
          "135401.632500",
          "135403.632500",
          "135405.632500",
          "135407.632500",
          "135409.632500",
          "135411.632500",
          "135413.632500",
          "135415.632500",
          "135417.632500",
          "135419.632500",
          "135421.632500",
          "135423.632500",
          "135425.632500",
          "135427.632500",
          "135429.632500",
          "135431.632500",
          "135433.632500",
          "135435.632500",
          "135437.632500",
          "135439.632500",
          "135441.632500",
          "135443.632500",
          "135445.632500"
        ],
        "ContentTime": [
          "134950.632000",
          "134952.626000",
          "134954.626000",
          "134956.626000",
          "134958.626000",
          "135000.627000",
          "135002.627000",
          "135004.627000",
          "135006.627000",
          "135008.627000",
          "135010.626000",
          "135012.626000",
          "135014.626000",
          "135016.626000",
          "135018.627000",
          "135020.627000",
          "135022.627000",
          "135024.627000",
          "135026.626000",
          "135028.626000",
          "135030.626000",
          "135032.626000",
          "135034.627000",
          "135036.627000",
          "135038.627000",
          "135040.627000",
          "135042.627000",
          "135044.626000",
          "135046.626000",
          "135048.626000",
          "135050.646000",
          "135052.627000",
          "135054.627000",
          "135056.627000",
          "135058.627000",
          "135100.627000",
          "135102.626000",
          "135104.626000",
          "135106.626000",
          "135108.626000",
          "135110.627000",
          "135112.627000",
          "135114.627000",
          "135116.627000",
          "135118.627000",
          "135120.626000",
          "135122.626000",
          "135124.626000",
          "135126.626000",
          "135128.627000",
          "135130.627000",
          "135132.627000",
          "135134.627000",
          "135136.626000",
          "135138.626000",
          "135140.626000",
          "135142.626000",
          "135144.627000",
          "135146.627000",
          "135148.627000",
          "135150.627000",
          "135152.627000",
          "135154.626000",
          "135156.626000",
          "135158.626000",
          "135200.626000",
          "135202.627000",
          "135204.627000",
          "135206.627000",
          "135208.627000",
          "135210.627000",
          "135212.626000",
          "135214.626000",
          "135216.626000",
          "135218.626000",
          "135220.627000",
          "135222.627000",
          "135224.627000",
          "135226.627000",
          "135228.627000",
          "135230.626000",
          "135232.626000",
          "135234.626000",
          "135236.626000",
          "135238.627000",
          "135240.638000",
          "135242.627000",
          "135244.627000",
          "135246.626000",
          "135248.626000",
          "135250.626000",
          "135252.626000",
          "135254.627000",
          "135256.627000",
          "135258.627000",
          "135300.627000",
          "135302.627000",
          "135304.626000",
          "135306.626000",
          "135308.646000",
          "135310.626000",
          "135312.627000",
          "135314.627000",
          "135316.627000",
          "135318.627000",
          "135320.627000",
          "135322.626000",
          "135324.626000",
          "135326.626000",
          "135328.626000",
          "135330.627000",
          "135332.627000",
          "135334.627000",
          "135336.627000",
          "135338.627000",
          "135340.626000",
          "135342.626000",
          "135344.626000",
          "135346.626000",
          "135348.627000",
          "135350.627000",
          "135352.627000",
          "135354.627000",
          "135356.626000",
          "135358.626000",
          "135400.626000",
          "135402.626000",
          "135404.627000",
          "135406.627000",
          "135408.627000",
          "135410.627000",
          "135412.627000",
          "135414.626000",
          "135416.626000",
          "135418.626000",
          "135420.626000",
          "135422.627000",
          "135424.627000",
          "135426.627000",
          "135428.627000",
          "135430.627000",
          "135432.626000",
          "135434.626000",
          "135436.626000",
          "135438.626000",
          "135440.627000",
          "135442.627000",
          "135444.627000",
          "135446.627000",
          "135448.455000"
        ],
        "InstanceCreationTime": [
          "134950.632000",
          "134952.626000",
          "134954.626000",
          "134956.626000",
          "134958.626000",
          "135000.627000",
          "135002.627000",
          "135004.627000",
          "135006.627000",
          "135008.627000",
          "135010.626000",
          "135012.626000",
          "135014.626000",
          "135016.626000",
          "135018.627000",
          "135020.627000",
          "135022.627000",
          "135024.627000",
          "135026.626000",
          "135028.626000",
          "135030.626000",
          "135032.626000",
          "135034.627000",
          "135036.627000",
          "135038.627000",
          "135040.627000",
          "135042.627000",
          "135044.626000",
          "135046.626000",
          "135048.626000",
          "135050.646000",
          "135052.627000",
          "135054.627000",
          "135056.627000",
          "135058.627000",
          "135100.627000",
          "135102.626000",
          "135104.626000",
          "135106.626000",
          "135108.626000",
          "135110.627000",
          "135112.627000",
          "135114.627000",
          "135116.627000",
          "135118.627000",
          "135120.626000",
          "135122.626000",
          "135124.626000",
          "135126.626000",
          "135128.627000",
          "135130.627000",
          "135132.627000",
          "135134.627000",
          "135136.626000",
          "135138.626000",
          "135140.626000",
          "135142.626000",
          "135144.627000",
          "135146.627000",
          "135148.627000",
          "135150.627000",
          "135152.627000",
          "135154.626000",
          "135156.626000",
          "135158.626000",
          "135200.626000",
          "135202.627000",
          "135204.627000",
          "135206.627000",
          "135208.627000",
          "135210.627000",
          "135212.626000",
          "135214.626000",
          "135216.626000",
          "135218.626000",
          "135220.627000",
          "135222.627000",
          "135224.627000",
          "135226.627000",
          "135228.627000",
          "135230.626000",
          "135232.626000",
          "135234.626000",
          "135236.626000",
          "135238.627000",
          "135240.638000",
          "135242.627000",
          "135244.627000",
          "135246.626000",
          "135248.626000",
          "135250.626000",
          "135252.626000",
          "135254.627000",
          "135256.627000",
          "135258.627000",
          "135300.627000",
          "135302.627000",
          "135304.626000",
          "135306.626000",
          "135308.646000",
          "135310.626000",
          "135312.627000",
          "135314.627000",
          "135316.627000",
          "135318.627000",
          "135320.627000",
          "135322.626000",
          "135324.626000",
          "135326.626000",
          "135328.626000",
          "135330.627000",
          "135332.627000",
          "135334.627000",
          "135336.627000",
          "135338.627000",
          "135340.626000",
          "135342.626000",
          "135344.626000",
          "135346.626000",
          "135348.627000",
          "135350.627000",
          "135352.627000",
          "135354.627000",
          "135356.626000",
          "135358.626000",
          "135400.626000",
          "135402.626000",
          "135404.627000",
          "135406.627000",
          "135408.627000",
          "135410.627000",
          "135412.627000",
          "135414.626000",
          "135416.626000",
          "135418.626000",
          "135420.626000",
          "135422.627000",
          "135424.627000",
          "135426.627000",
          "135428.627000",
          "135430.627000",
          "135432.626000",
          "135434.626000",
          "135436.626000",
          "135438.626000",
          "135440.627000",
          "135442.627000",
          "135444.627000",
          "135446.627000",
          "135448.455000"
        ],
        "InstanceNumber": [
          1,
          2,
          3,
          4,
          5,
          6,
          7,
          8,
          9,
          10,
          11,
          12,
          13,
          14,
          15,
          16,
          17,
          18,
          19,
          20,
          21,
          22,
          23,
          24,
          25,
          26,
          27,
          28,
          29,
          30,
          31,
          32,
          33,
          34,
          35,
          36,
          37,
          38,
          39,
          40,
          41,
          42,
          43,
          44,
          45,
          46,
          47,
          48,
          49,
          50,
          51,
          52,
          53,
          54,
          55,
          56,
          57,
          58,
          59,
          60,
          61,
          62,
          63,
          64,
          65,
          66,
          67,
          68,
          69,
          70,
          71,
          72,
          73,
          74,
          75,
          76,
          77,
          78,
          79,
          80,
          81,
          82,
          83,
          84,
          85,
          86,
          87,
          88,
          89,
          90,
          91,
          92,
          93,
          94,
          95,
          96,
          97,
          98,
          99,
          100,
          101,
          102,
          103,
          104,
          105,
          106,
          107,
          108,
          109,
          110,
          111,
          112,
          113,
          114,
          115,
          116,
          117,
          118,
          119,
          120,
          121,
          122,
          123,
          124,
          125,
          126,
          127,
          128,
          129,
          130,
          131,
          132,
          133,
          134,
          135,
          136,
          137,
          138,
          139,
          140,
          141,
          142,
          143,
          144,
          145,
          146,
          147,
          148,
          149,
          150
        ],
        "LargestImagePixelValue": [
          21598,
          21493,
          21246,
          21116,
          21206,
          21475,
          21495,
          21570,
          21516,
          21658,
          21763,
          22039,
          21752,
          21728,
          21991,
          21978,
          21973,
          22029,
          22005,
          21950,
          21796,
          21541,
          21686,
          21788,
          21492,
          21665,
          21725,
          21603,
          21691,
          21669,
          22032,
          22170,
          22058,
          21981,
          22223,
          22279,
          21853,
          21715,
          21623,
          22231,
          21853,
          21695,
          21777,
          21858,
          21611,
          21880,
          22139,
          22118,
          22206,
          22398,
          21865,
          21799,
          22063,
          21934,
          22038,
          21769,
          22125,
          21908,
          22182,
          22055,
          21760,
          21705,
          21903,
          21794,
          21583,
          21555,
          21758,
          22075,
          21327,
          21747,
          21764,
          21333,
          21793,
          21735,
          21508,
          21565,
          21567,
          22039,
          22064,
          21828,
          21859,
          21871,
          21649,
          21499,
          21492,
          21692,
          21536,
          21330,
          21586,
          21412,
          21214,
          21561,
          21354,
          21350,
          21343,
          21648,
          21501,
          21387,
          21531,
          21631,
          21449,
          21730,
          21550,
          21335,
          21343,
          21462,
          21425,
          21556,
          21225,
          21678,
          21521,
          21418,
          21275,
          21502,
          21377,
          21409,
          21365,
          21600,
          21513,
          21339,
          21486,
          21735,
          21419,
          21632,
          21744,
          21706,
          21682,
          21760,
          21645,
          21576,
          21842,
          22451,
          21684,
          21480,
          21612,
          21655,
          21641,
          21575,
          21674,
          21457,
          21333,
          21544,
          21479,
          21603,
          21849,
          21818,
          21710,
          21564,
          21714,
          21745
        ],
        "TriggerTime": [
          11670.0,
          13670.0,
          15670.0,
          17670.0,
          19670.0,
          21670.0,
          23670.0,
          25670.0,
          27670.0,
          29670.0,
          31670.0,
          33670.0,
          35670.0,
          37670.0,
          39670.0,
          41670.0,
          43670.0,
          45670.0,
          47670.0,
          49670.0,
          51670.0,
          53670.0,
          55670.0,
          57670.0,
          59670.0,
          61670.0,
          63670.0,
          65670.0,
          67670.0,
          69670.0,
          71670.0,
          73670.0,
          75670.0,
          77670.0,
          79670.0,
          81670.0,
          83670.0,
          85670.0,
          87670.0,
          89670.0,
          91670.0,
          93670.0,
          95670.0,
          97670.0,
          99670.0,
          101670.0,
          103670.0,
          105670.0,
          107670.0,
          109670.0,
          111670.0,
          113670.0,
          115670.0,
          117670.0,
          119670.0,
          121670.0,
          123670.0,
          125670.0,
          127670.0,
          129670.0,
          131670.0,
          133670.0,
          135670.0,
          137670.0,
          139670.0,
          141670.0,
          143670.0,
          145670.0,
          147670.0,
          149670.0,
          151670.0,
          153670.0,
          155670.0,
          157670.0,
          159670.0,
          161670.0,
          163670.0,
          165670.0,
          167670.0,
          169670.0,
          171670.0,
          173670.0,
          175670.0,
          177670.0,
          179670.0,
          181670.0,
          183670.0,
          185670.0,
          187670.0,
          189670.0,
          191670.0,
          193670.0,
          195670.0,
          197670.0,
          199670.0,
          201670.0,
          203670.0,
          205670.0,
          207670.0,
          209670.0,
          211670.0,
          213670.0,
          215670.0,
          217670.0,
          219670.0,
          221670.0,
          223670.0,
          225670.0,
          227670.0,
          229670.0,
          231670.0,
          233670.0,
          235670.0,
          237670.0,
          239670.0,
          241670.0,
          243670.0,
          245670.0,
          247670.0,
          249670.0,
          251670.0,
          253670.0,
          255670.0,
          257670.0,
          259670.0,
          261670.0,
          263670.0,
          265670.0,
          267670.0,
          269670.0,
          271670.0,
          273670.0,
          275670.0,
          277670.0,
          279670.0,
          281670.0,
          283670.0,
          285670.0,
          287670.0,
          289670.0,
          291670.0,
          293670.0,
          295670.0,
          297670.0,
          299670.0,
          301670.0,
          303670.0,
          305670.0,
          307670.0,
          309670.0
        ],
        "WindowCenter": [
          7791.0,
          7780.0,
          7772.0,
          7788.0,
          7812.0,
          7799.0,
          7776.0,
          7777.0,
          7796.0,
          7796.0,
          7817.0,
          7826.0,
          7804.0,
          7796.0,
          7805.0,
          7795.0,
          7783.0,
          7791.0,
          7803.0,
          7782.0,
          7783.0,
          7774.0,
          7776.0,
          7786.0,
          7766.0,
          7761.0,
          7763.0,
          7761.0,
          7762.0,
          7771.0,
          7780.0,
          7814.0,
          7816.0,
          7813.0,
          7824.0,
          7833.0,
          7807.0,
          7784.0,
          7785.0,
          7815.0,
          7796.0,
          7782.0,
          7784.0,
          7793.0,
          7793.0,
          7796.0,
          7814.0,
          7803.0,
          7802.0,
          7811.0,
          7784.0,
          7784.0,
          7822.0,
          7795.0,
          7781.0,
          7775.0,
          7771.0,
          7783.0,
          7793.0,
          7791.0,
          7782.0,
          7782.0,
          7774.0,
          7784.0,
          7773.0,
          7775.0,
          7794.0,
          7792.0,
          7777.0,
          7805.0,
          7790.0,
          7773.0,
          7794.0,
          7815.0,
          7798.0,
          7797.0,
          7817.0,
          7814.0,
          7803.0,
          7784.0,
          7774.0,
          7793.0,
          7773.0,
          7765.0,
          7776.0,
          7793.0,
          7784.0,
          7765.0,
          7764.0,
          7761.0,
          7754.0,
          7763.0,
          7762.0,
          7774.0,
          7775.0,
          7783.0,
          7764.0,
          7773.0,
          7784.0,
          7793.0,
          7775.0,
          7792.0,
          7783.0,
          7764.0,
          7773.0,
          7777.0,
          7785.0,
          7763.0,
          7765.0,
          7792.0,
          7775.0,
          7754.0,
          7742.0,
          7750.0,
          7752.0,
          7754.0,
          7754.0,
          7763.0,
          7767.0,
          7762.0,
          7766.0,
          7803.0,
          7787.0,
          7805.0,
          7798.0,
          7807.0,
          7796.0,
          7796.0,
          7808.0,
          7820.0,
          7817.0,
          7843.0,
          7816.0,
          7799.0,
          7796.0,
          7787.0,
          7774.0,
          7776.0,
          7776.0,
          7766.0,
          7764.0,
          7785.0,
          7801.0,
          7807.0,
          7795.0,
