{
  "aor": 0.009323866666666668,
  "aqi": 0.0070016278,
  "bids_meta": {
    "ConversionSoftware": "dcm2niix",
    "ConversionSoftwareVersion": "v1.0.20170207",
    "EchoTime": 0.0302,
    "EffectiveEchoSpacing": 0.000640002,
    "FlipAngle": 90,
    "ImageType": [
      "ORIGINAL",
      "PRIMARY",
      "M",
      "MB",
      "ND",
      "MOSAIC"
    ],
    "MagneticFieldStrength": 3,
    "Manufacturer": "Siemens",
    "ManufacturersModelName": "Prisma",
    "PhaseEncodingDirection": "j-",
    "ProcedureStepDescription": "CAMRIS_CHOP",
    "ProtocolName": "BOLD_resting1",
    "RepetitionTime": 2,
    "SliceTiming": [
      0,
      0.08,
      0.16,
      0.2375,
      0.3175,
      0.3975,
      0.475,
      0.555,
      0.635,
      0.7125,
      0.7925,
      0.8725,
      0.95,
      1.03,
      1.11,
      1.1875,
      1.2675,
      1.3475,
      1.425,
      1.505,
      1.585,
      1.6625,
      1.7425,
      1.8225,
      1.9025,
      0,
      0.08,
      0.16,
      0.2375,
      0.3175,
      0.3975,
      0.475,
      0.555,
      0.635,
      0.7125,
      0.7925,
      0.8725,
      0.95,
      1.03,
      1.11,
      1.1875,
      1.2675,
      1.3475,
      1.425,
      1.505,
      1.585,
      1.6625,
      1.7425,
      1.8225,
      1.9025,
      0,
      0.08,
      0.16,
      0.2375,
      0.3175,
      0.3975,
      0.475,
      0.555,
      0.635,
      0.7125,
      0.7925,
      0.8725,
      0.95,
      1.03,
      1.11,
      1.1875,
      1.2675,
      1.3475,
      1.425,
      1.505,
      1.585,
      1.6625,
      1.7425,
      1.8225,
      1.9025
    ],
    "TaskName": "piper",
    "dataset": "ds004228",
    "dcmmeta_affine": [
      [
        -2.0,
        0.0,
        0.0,
        99.63200378417969
      ],
      [
        0.0,
        2.0,
        0.0,
        -78.86699676513672
      ],
      [
        0.0,
        0.0,
        2.0,
        -47.97090148925781
      ],
      [
        0.0,
        0.0,
        0.0,
        1.0
      ]
    ],
    "dcmmeta_reorient_transform": [
      [
        0.0,
        -1.0,
        0.0,
        95.0
      ],
      [
        1.0,
        0.0,
        0.0,
        0.0
      ],
      [
        0.0,
        0.0,
        1.0,
        0.0
      ],
      [
        0.0,
        0.0,
        0.0,
        1.0
      ]
    ],
    "dcmmeta_shape": [
      96,
      96,
      75,
      150
    ],
    "dcmmeta_slice_dim": 2,
    "dcmmeta_version": 0.6,
    "global": {
      "const": {
        "AcquisitionMatrix": [
          96,
          0,
          0,
          96
        ],
        "AngioFlag": "N",
        "BitsAllocated": 16,
        "BitsStored": 16,
        "BodyPartExamined": "BRAIN",
        "CardiacNumberOfImages": 1,
        "Columns": 864,
        "EchoNumbers": 1,
        "EchoTime": 30.2,
        "EchoTrainLength": 84,
        "FlipAngle": 90.0,
        "HighBit": 15,
        "ImageOrientationPatient": [
          1.0,
          0.0,
          0.0,
          0.0,
          1.0,
          0.0
        ],
        "ImagePositionPatient": [
          -867.632,
          -879.133,
          -47.9709
        ],
        "ImageType": [
          "ORIGINAL",
          "PRIMARY",
          "M",
          "MB",
          "ND",
          "MOSAIC"
        ],
        "ImagedNucleus": "1H",
        "ImagingFrequency": 123.255,
        "InPlanePhaseEncodingDirection": "COL",
        "MRAcquisitionType": "2D",
        "MagneticFieldStrength": 3.0,
        "Manufacturer": "SIEMENS",
        "ManufacturerModelName": "Prisma",
        "Modality": "MR",
        "NominalInterval": 0,
        "NumberOfAverages": 1.0,
        "NumberOfFrames": 1,
        "NumberOfPhaseEncodingSteps": 84,
        "PercentPhaseFieldOfView": 100.0,
        "PercentSampling": 100.0,
        "PerformedProcedureStepStartTime": "140107.325000",
        "PhotometricInterpretation": "MONOCHROME2",
        "PixelBandwidth": 1860.0,
        "PixelRepresentation": 0,
        "PixelSpacing": [
          2.0,
          2.0
        ],
        "ProtocolName": "BOLD_resting1",
        "RepetitionTime": 2000.0,
        "Rows": 864,
        "SAR": 0.116362,
        "SamplesPerPixel": 1,
        "ScanOptions": [
          "PFP",
          "FS",
          "EXT"
        ],
        "ScanningSequence": "EP",
        "SequenceName": "epfid2d1_96",
        "SequenceVariant": [
          "SK",
          "SS"
        ],
        "SeriesDescription": "BOLD_resting1",
        "SeriesNumber": 19,
        "SeriesTime": "144533.716000",
        "SliceLocation": -47.9709,
        "SliceThickness": 2.0,
        "SmallestImagePixelValue": 0,
        "SoftwareVersions": "syngo MR E11",
        "SpacingBetweenSlices": 2.0,
        "SpecificCharacterSet": "ISO_IR 100",
        "StudyID": "1",
        "StudyTime": "140107.249000",
        "TransmitCoilName": "Body",
        "VariableFlipAngleFlag": "N",
        "WindowCenterWidthExplanation": "Algo1",
        "dBdt": 0.0
      },
      "slices": {}
    },
    "modality": "bold",
    "run_id": 1,
    "session_id": "01",
    "subject_id": "55",
    "task_id": "piper",
    "time": {
      "samples": {
        "AcquisitionNumber": [
          1,
          2,
          3,
          4,
          5,
          6,
          7,
          8,
          9,
          10,
          11,
          12,
          13,
          14,
          15,
          16,
          17,
          18,
          19,
          20,
          21,
          22,
          23,
          24,
          25,
          26,
          27,
          28,
          29,
          30,
          31,
          32,
          33,
          34,
          35,
          36,
          37,
          38,
          39,
          40,
          41,
          42,
          43,
          44,
          45,
          46,
          47,
          48,
          49,
          50,
          51,
          52,
          53,
          54,
          55,
          56,
          57,
          58,
          59,
          60,
          61,
          62,
          63,
          64,
          65,
          66,
          67,
          68,
          69,
          70,
          71,
          72,
          73,
          74,
          75,
          76,
          77,
          78,
          79,
          80,
          81,
          82,
          83,
          84,
          85,
          86,
          87,
          88,
          89,
          90,
          91,
          92,
          93,
          94,
          95,
          96,
          97,
          98,
          99,
          100,
          101,
          102,
          103,
          104,
          105,
          106,
          107,
          108,
          109,
          110,
          111,
          112,
          113,
          114,
          115,
          116,
          117,
          118,
          119,
          120,
          121,
          122,
          123,
          124,
          125,
          126,
          127,
          128,
          129,
          130,
          131,
          132,
          133,
          134,
          135,
          136,
          137,
          138,
          139,
          140,
          141,
          142,
          143,
          144,
          145,
          146,
          147,
          148,
          149,
          150
        ],
        "AcquisitionTime": [
          "144531.110000",
          "144533.110000",
          "144535.110000",
          "144537.110000",
          "144539.110000",
          "144541.110000",
          "144543.110000",
          "144545.110000",
          "144547.110000",
          "144549.110000",
          "144551.110000",
          "144553.110000",
          "144555.110000",
          "144557.110000",
          "144559.110000",
          "144601.110000",
          "144603.110000",
          "144605.110000",
          "144607.110000",
          "144609.110000",
          "144611.110000",
          "144613.110000",
          "144615.110000",
          "144617.110000",
          "144619.110000",
          "144621.110000",
          "144623.110000",
          "144625.110000",
          "144627.110000",
          "144629.110000",
          "144631.110000",
          "144633.110000",
          "144635.110000",
          "144637.110000",
          "144639.110000",
          "144641.110000",
          "144643.110000",
          "144645.110000",
          "144647.110000",
          "144649.110000",
          "144651.110000",
          "144653.110000",
          "144655.110000",
          "144657.110000",
          "144659.110000",
          "144701.110000",
          "144703.110000",
          "144705.110000",
          "144707.110000",
          "144709.110000",
          "144711.110000",
          "144713.110000",
          "144715.110000",
          "144717.110000",
          "144719.110000",
          "144721.110000",
          "144723.110000",
          "144725.110000",
          "144727.110000",
          "144729.110000",
          "144731.110000",
          "144733.110000",
          "144735.110000",
          "144737.110000",
          "144739.110000",
          "144741.110000",
          "144743.110000",
          "144745.110000",
          "144747.110000",
          "144749.110000",
          "144751.110000",
          "144753.110000",
          "144755.110000",
          "144757.110000",
          "144759.110000",
          "144801.110000",
          "144803.110000",
          "144805.110000",
          "144807.110000",
          "144809.110000",
          "144811.110000",
          "144813.110000",
          "144815.110000",
          "144817.110000",
          "144819.110000",
          "144821.110000",
          "144823.110000",
          "144825.110000",
          "144827.110000",
          "144829.110000",
          "144831.110000",
          "144833.110000",
          "144835.110000",
          "144837.110000",
          "144839.110000",
          "144841.110000",
          "144843.110000",
          "144845.110000",
          "144847.110000",
          "144849.110000",
          "144851.110000",
          "144853.110000",
          "144855.110000",
          "144857.110000",
          "144859.110000",
          "144901.110000",
          "144903.110000",
          "144905.110000",
          "144907.110000",
          "144909.110000",
          "144911.110000",
          "144913.110000",
          "144915.110000",
          "144917.110000",
          "144919.110000",
          "144921.110000",
          "144923.110000",
          "144925.110000",
          "144927.110000",
          "144929.110000",
          "144931.110000",
          "144933.110000",
          "144935.110000",
          "144937.110000",
          "144939.110000",
          "144941.110000",
          "144943.110000",
          "144945.110000",
          "144947.110000",
          "144949.110000",
          "144951.110000",
          "144953.110000",
          "144955.110000",
          "144957.110000",
          "144959.110000",
          "145001.110000",
          "145003.110000",
          "145005.110000",
          "145007.110000",
          "145009.110000",
          "145011.110000",
          "145013.110000",
          "145015.110000",
          "145017.110000",
          "145019.110000",
          "145021.110000",
          "145023.110000",
          "145025.110000",
          "145027.110000",
          "145029.110000"
        ],
        "ContentTime": [
          "144533.720000",
          "144535.715000",
          "144537.715000",
          "144539.715000",
          "144541.716000",
          "144543.716000",
          "144545.716000",
          "144547.715000",
          "144549.715000",
          "144551.715000",
          "144553.715000",
          "144555.715000",
          "144557.715000",
          "144559.716000",
          "144601.716000",
          "144603.716000",
          "144605.715000",
          "144607.715000",
          "144609.715000",
          "144611.715000",
          "144613.715000",
          "144615.715000",
          "144617.716000",
          "144619.716000",
          "144621.716000",
          "144623.715000",
          "144625.715000",
          "144627.715000",
          "144629.715000",
          "144631.715000",
          "144633.716000",
          "144635.716000",
          "144637.716000",
          "144639.715000",
          "144641.715000",
          "144643.715000",
          "144645.715000",
          "144647.715000",
          "144649.715000",
          "144651.716000",
          "144653.716000",
          "144655.716000",
          "144657.715000",
          "144659.715000",
          "144701.715000",
          "144703.715000",
          "144705.715000",
          "144707.715000",
          "144709.716000",
          "144711.716000",
          "144713.716000",
          "144715.715000",
          "144717.715000",
          "144719.715000",
          "144721.715000",
          "144723.715000",
          "144725.715000",
          "144727.716000",
          "144729.716000",
          "144731.716000",
          "144733.715000",
          "144735.715000",
          "144737.715000",
          "144739.742000",
          "144741.715000",
          "144743.716000",
          "144745.716000",
          "144747.716000",
          "144749.715000",
          "144751.715000",
          "144753.715000",
          "144755.715000",
          "144757.715000",
          "144759.715000",
          "144801.716000",
          "144803.716000",
          "144805.716000",
          "144807.715000",
          "144809.715000",
          "144811.715000",
          "144813.715000",
          "144815.715000",
          "144817.715000",
          "144819.716000",
          "144821.716000",
          "144823.716000",
          "144825.715000",
          "144827.715000",
          "144829.715000",
          "144831.715000",
          "144833.715000",
          "144835.716000",
          "144837.716000",
          "144839.716000",
          "144841.716000",
          "144843.715000",
          "144845.715000",
          "144847.715000",
          "144849.715000",
          "144851.715000",
          "144853.716000",
          "144855.716000",
          "144857.716000",
          "144859.715000",
          "144901.715000",
          "144903.715000",
          "144905.715000",
          "144907.715000",
          "144909.715000",
          "144911.716000",
          "144913.716000",
          "144915.716000",
          "144917.715000",
          "144919.715000",
          "144921.715000",
          "144923.715000",
          "144925.715000",
          "144927.715000",
          "144929.716000",
          "144931.716000",
          "144933.716000",
          "144935.715000",
          "144937.715000",
          "144939.715000",
          "144941.715000",
          "144943.715000",
          "144945.716000",
          "144947.716000",
          "144949.716000",
          "144951.716000",
          "144953.715000",
          "144955.715000",
          "144957.715000",
          "144959.715000",
          "145001.715000",
          "145003.716000",
          "145005.716000",
          "145007.716000",
          "145009.715000",
          "145011.715000",
          "145013.715000",
          "145015.715000",
          "145017.715000",
          "145019.715000",
          "145021.716000",
          "145023.716000",
          "145025.716000",
          "145027.715000",
          "145029.715000",
          "145031.388000"
        ],
        "InstanceCreationTime": [
          "144533.720000",
          "144535.715000",
          "144537.715000",
          "144539.715000",
          "144541.716000",
          "144543.716000",
          "144545.716000",
          "144547.715000",
          "144549.715000",
          "144551.715000",
          "144553.715000",
          "144555.715000",
          "144557.715000",
          "144559.716000",
          "144601.716000",
          "144603.716000",
          "144605.715000",
          "144607.715000",
          "144609.715000",
          "144611.715000",
          "144613.715000",
          "144615.715000",
          "144617.716000",
          "144619.716000",
          "144621.716000",
          "144623.715000",
          "144625.715000",
          "144627.715000",
          "144629.715000",
          "144631.715000",
          "144633.716000",
          "144635.716000",
          "144637.716000",
          "144639.715000",
          "144641.715000",
          "144643.715000",
          "144645.715000",
          "144647.715000",
          "144649.715000",
          "144651.716000",
          "144653.716000",
          "144655.716000",
          "144657.715000",
          "144659.715000",
          "144701.715000",
          "144703.715000",
          "144705.715000",
          "144707.715000",
          "144709.716000",
          "144711.716000",
          "144713.716000",
          "144715.715000",
          "144717.715000",
          "144719.715000",
          "144721.715000",
          "144723.715000",
          "144725.715000",
          "144727.716000",
          "144729.716000",
          "144731.716000",
          "144733.715000",
          "144735.715000",
          "144737.715000",
          "144739.742000",
          "144741.715000",
          "144743.716000",
          "144745.716000",
          "144747.716000",
          "144749.715000",
          "144751.715000",
          "144753.715000",
          "144755.715000",
          "144757.715000",
          "144759.715000",
          "144801.716000",
          "144803.716000",
          "144805.716000",
          "144807.715000",
          "144809.715000",
          "144811.715000",
          "144813.715000",
          "144815.715000",
          "144817.715000",
          "144819.716000",
          "144821.716000",
          "144823.716000",
          "144825.715000",
          "144827.715000",
          "144829.715000",
          "144831.715000",
          "144833.715000",
          "144835.716000",
          "144837.716000",
          "144839.716000",
          "144841.716000",
          "144843.715000",
          "144845.715000",
          "144847.715000",
          "144849.715000",
          "144851.715000",
          "144853.716000",
          "144855.716000",
          "144857.716000",
          "144859.715000",
          "144901.715000",
          "144903.715000",
          "144905.715000",
          "144907.715000",
          "144909.715000",
          "144911.716000",
          "144913.716000",
          "144915.716000",
          "144917.715000",
          "144919.715000",
          "144921.715000",
          "144923.715000",
          "144925.715000",
          "144927.715000",
          "144929.716000",
          "144931.716000",
          "144933.716000",
          "144935.715000",
          "144937.715000",
          "144939.715000",
          "144941.715000",
          "144943.715000",
          "144945.716000",
          "144947.716000",
          "144949.716000",
          "144951.716000",
          "144953.715000",
          "144955.715000",
          "144957.715000",
          "144959.715000",
          "145001.715000",
          "145003.716000",
          "145005.716000",
          "145007.716000",
          "145009.715000",
          "145011.715000",
          "145013.715000",
          "145015.715000",
          "145017.715000",
          "145019.715000",
          "145021.716000",
          "145023.716000",
          "145025.716000",
          "145027.715000",
          "145029.715000",
          "145031.388000"
        ],
        "InstanceNumber": [
          1,
          2,
          3,
          4,
          5,
          6,
          7,
          8,
          9,
          10,
          11,
          12,
          13,
          14,
          15,
          16,
          17,
          18,
          19,
          20,
          21,
          22,
          23,
          24,
          25,
          26,
          27,
          28,
          29,
          30,
          31,
          32,
          33,
          34,
          35,
          36,
          37,
          38,
          39,
          40,
          41,
          42,
          43,
          44,
          45,
          46,
          47,
          48,
          49,
          50,
          51,
          52,
          53,
          54,
          55,
          56,
          57,
          58,
          59,
          60,
          61,
          62,
          63,
          64,
          65,
          66,
          67,
          68,
          69,
          70,
          71,
          72,
          73,
          74,
          75,
          76,
          77,
          78,
          79,
          80,
          81,
          82,
          83,
          84,
          85,
          86,
          87,
          88,
          89,
          90,
          91,
          92,
          93,
          94,
          95,
          96,
          97,
          98,
          99,
          100,
          101,
          102,
          103,
          104,
          105,
          106,
          107,
          108,
          109,
          110,
          111,
          112,
          113,
          114,
          115,
          116,
          117,
          118,
          119,
          120,
          121,
          122,
          123,
          124,
          125,
          126,
          127,
          128,
          129,
          130,
          131,
          132,
          133,
          134,
          135,
          136,
          137,
          138,
          139,
          140,
          141,
          142,
          143,
          144,
          145,
          146,
          147,
          148,
          149,
          150
        ],
        "LargestImagePixelValue": [
          32713,
          30809,
          30431,
          30724,
          31202,
          32134,
          30981,
          31239,
          31254,
          31124,
          31711,
          31150,
          31396,
          31302,
          31082,
          30959,
          31151,
          30676,
          31201,
          29736,
          30881,
          30931,
          30444,
          30490,
          30512,
          30605,
          30836,
          29660,
          31171,
          30443,
          31262,
          30657,
          30890,
          30501,
          30714,
          31126,
          30669,
          30719,
          30188,
          30288,
          29711,
          30222,
          29789,
          31049,
          30168,
          29495,
          31650,
          30242,
          30575,
          30955,
          30167,
          30847,
          31844,
          30589,
          31000,
          30704,
          30500,
          31094,
          30324,
          31288,
          30373,
          30582,
          30656,
          31389,
          30507,
          30832,
          30939,
          30995,
          31690,
          30166,
          31058,
          30289,
          30514,
          30444,
          30945,
          30281,
          30732,
          30915,
          31216,
          31028,
          30277,
          31230,
          30832,
          30980,
          30726,
          31102,
          31666,
          30894,
          31685,
          31093,
          29749,
          28340,
          30206,
          30906,
          29516,
          29624,
          29401,
          29485,
          30582,
          29270,
          28984,
          30910,
          30049,
          30401,
          29846,
          30244,
          29677,
          30419,
          30721,
          29932,
          29866,
          30618,
          31144,
          30532,
          30712,
          29801,
          29875,
          30589,
          30612,
          31004,
          30648,
          30789,
          30313,
          30634,
          31469,
          28546,
          30733,
          30626,
          30035,
          29526,
          30684,
          29984,
          30160,
          30707,
          30561,
          31199,
          30907,
          31138,
          30444,
          31327,
          31052,
          30867,
          31552,
          30950,
          30618,
          30977,
          30509,
          30540,
          31259,
          30521
        ],
        "TriggerTime": [
          11730.0,
          13730.0,
          15730.0,
          17730.0,
          19730.0,
          21730.0,
          23730.0,
          25730.0,
          27730.0,
          29730.0,
          31730.0,
          33730.0,
          35730.0,
          37730.0,
          39730.0,
          41730.0,
          43730.0,
          45730.0,
          47730.0,
          49730.0,
          51730.0,
          53730.0,
          55730.0,
          57730.0,
          59730.0,
          61730.0,
          63730.0,
          65730.0,
          67730.0,
          69730.0,
          71730.0,
          73730.0,
          75730.0,
          77730.0,
          79730.0,
          81730.0,
          83730.0,
          85730.0,
          87730.0,
          89730.0,
          91730.0,
          93730.0,
          95730.0,
          97730.0,
          99730.0,
          101730.0,
          103730.0,
          105730.0,
          107730.0,
          109730.0,
          111730.0,
          113730.0,
          115730.0,
          117730.0,
          119730.0,
          121730.0,
          123730.0,
          125730.0,
          127730.0,
          129730.0,
          131730.0,
          133730.0,
          135730.0,
          137730.0,
          139730.0,
          141730.0,
          143730.0,
          145730.0,
          147730.0,
          149730.0,
          151730.0,
          153730.0,
          155730.0,
          157730.0,
          159730.0,
          161730.0,
          163730.0,
          165730.0,
          167730.0,
          169730.0,
          171730.0,
          173730.0,
          175730.0,
          177730.0,
          179730.0,
          181730.0,
          183730.0,
          185730.0,
          187730.0,
          189730.0,
          191730.0,
          193730.0,
          195730.0,
          197730.0,
          199730.0,
          201730.0,
          203730.0,
          205730.0,
          207730.0,
          209730.0,
          211730.0,
          213730.0,
          215730.0,
          217730.0,
          219730.0,
          221730.0,
          223730.0,
          225730.0,
          227730.0,
          229730.0,
          231730.0,
          233730.0,
          235730.0,
          237730.0,
          239730.0,
          241730.0,
          243730.0,
          245730.0,
          247730.0,
          249730.0,
          251730.0,
          253730.0,
          255730.0,
          257730.0,
          259730.0,
          261730.0,
          263730.0,
          265730.0,
          267730.0,
          269730.0,
          271730.0,
          273730.0,
          275730.0,
          277730.0,
          279730.0,
          281730.0,
          283730.0,
          285730.0,
          287730.0,
          289730.0,
          291730.0,
          293730.0,
          295730.0,
          297730.0,
          299730.0,
          301730.0,
          303730.0,
          305730.0,
          307730.0,
          309730.0
        ],
        "WindowCenter": [
          8724.0,
          8707.0,
          8689.0,
          8696.0,
          8674.0,
          8704.0,
          8693.0,
          8682.0,
          8682.0,
          8663.0,
          8669.0,
          8664.0,
          8652.0,
          8669.0,
          8672.0,
          8669.0,
          8691.0,
          8673.0,
          8687.0,
          8691.0,
          8682.0,
          8690.0,
          8679.0,
          8686.0,
          8685.0,
          8655.0,
          8663.0,
          8641.0,
          8662.0,
          8675.0,
          8698.0,
          8693.0,
          8700.0,
          8697.0,
          8676.0,
          8698.0,
          8703.0,
          8666.0,
          8647.0,
          8646.0,
          8628.0,
          8645.0,
          8659.0,
          8699.0,
          8726.0,
          8695.0,
          8724.0,
          8714.0,
          8704.0,
          8719.0,
          8709.0,
          8714.0,
          8741.0,
          8706.0,
          8691.0,
          8704.0,
          8696.0,
          8719.0,
          8696.0,
          8706.0,
          8696.0,
          8694.0,
          8742.0,
          8721.0,
          8698.0,
          8655.0,
          8689.0,
          8694.0,
          8697.0,
          8649.0,
          8648.0,
          8643.0,
          8625.0,
          8655.0,
          8633.0,
          8651.0,
          8653.0,
          8680.0,
          8687.0,
          8730.0,
          8717.0,
          8728.0,
          8701.0,
          8677.0,
          8682.0,
          8670.0,
          8711.0,
          8720.0,
          8725.0,
          8751.0,
          8761.0,
          8721.0,
          8692.0,
          8711.0,
          8683.0,
          8653.0,
          8653.0,
          8662.0,
          8703.0,
          8715.0,
          8702.0,
          8822.0,
          8683.0,
          8676.0,
          8633.0,
          8640.0,
          8607.0,
          8630.0,
          8650.0,
          8653.0,
          8687.0,
          8692.0,
          8697.0,
          8683.0,
          8690.0,
          8669.0,
          8703.0,
          8696.0,
          8666.0,
          8661.0,
          8630.0,
          8640.0,
          8673.0,
          8663.0,
          8675.0,
          8570.0,
          8696.0,
          8653.0,
          8636.0,
          8569.0,
          8569.0,
          8561.0,
          8554.0,
          8650.0,
          8638.0,
          8627.0,
          8610.0,
          8642.0,
          8665.0,
          8681.0,
          8695.0,
          8657.0,
          8678.0,
          8693.0,
          8666.0,
