{
  "aor": 0.0023575999999999996,
  "aqi": 0.006275782533333333,
  "bids_meta": {
    "ConversionSoftware": "dcm2niix",
    "ConversionSoftwareVersion": "v1.0.20170207",
    "EchoTime": 0.0302,
    "EffectiveEchoSpacing": 0.000640002,
    "FlipAngle": 90,
    "ImageType": [
      "ORIGINAL",
      "PRIMARY",
      "M",
      "MB",
      "ND",
      "MOSAIC"
    ],
    "MagneticFieldStrength": 3,
    "Manufacturer": "Siemens",
    "ManufacturersModelName": "Prisma",
    "PhaseEncodingDirection": "j-",
    "ProcedureStepDescription": "CAMRIS_CHOP",
    "ProtocolName": "BOLD_resting1",
    "RepetitionTime": 2,
    "SliceTiming": [
      0,
      0.08,
      0.16,
      0.2375,
      0.3175,
      0.3975,
      0.475,
      0.555,
      0.635,
      0.7125,
      0.7925,
      0.8725,
      0.95,
      1.03,
      1.11,
      1.19,
      1.2675,
      1.3475,
      1.4275,
      1.505,
      1.585,
      1.665,
      1.7425,
      1.8225,
      1.9025,
      0,
      0.08,
      0.16,
      0.2375,
      0.3175,
      0.3975,
      0.475,
      0.555,
      0.635,
      0.7125,
      0.7925,
      0.8725,
      0.95,
      1.03,
      1.11,
      1.19,
      1.2675,
      1.3475,
      1.4275,
      1.505,
      1.585,
      1.665,
      1.7425,
      1.8225,
      1.9025,
      0,
      0.08,
      0.16,
      0.2375,
      0.3175,
      0.3975,
      0.475,
      0.555,
      0.635,
      0.7125,
      0.7925,
      0.8725,
      0.95,
      1.03,
      1.11,
      1.19,
      1.2675,
      1.3475,
      1.4275,
      1.505,
      1.585,
      1.665,
      1.7425,
      1.8225,
      1.9025
    ],
    "TaskName": "piper",
    "dataset": "ds004228",
    "dcmmeta_affine": [
      [
        -2.0,
        0.0,
        0.0,
        97.80699920654297
      ],
      [
        0.0,
        2.0,
        0.0,
        -82.55400085449219
      ],
      [
        0.0,
        0.0,
        2.0,
        -56.53010177612305
      ],
      [
        0.0,
        0.0,
        0.0,
        1.0
      ]
    ],
    "dcmmeta_reorient_transform": [
      [
        0.0,
        -1.0,
        0.0,
        95.0
      ],
      [
        1.0,
        0.0,
        0.0,
        0.0
      ],
      [
        0.0,
        0.0,
        1.0,
        0.0
      ],
      [
        0.0,
        0.0,
        0.0,
        1.0
      ]
    ],
    "dcmmeta_shape": [
      96,
      96,
      75,
      150
    ],
    "dcmmeta_slice_dim": 2,
    "dcmmeta_version": 0.6,
    "global": {
      "const": {
        "AcquisitionMatrix": [
          96,
          0,
          0,
          96
        ],
        "AngioFlag": "N",
        "BitsAllocated": 16,
        "BitsStored": 16,
        "BodyPartExamined": "BRAIN",
        "CardiacNumberOfImages": 1,
        "Columns": 864,
        "EchoNumbers": 1,
        "EchoTime": 30.2,
        "EchoTrainLength": 84,
        "FlipAngle": 90.0,
        "HighBit": 15,
        "ImageOrientationPatient": [
          1.0,
          0.0,
          0.0,
          0.0,
          1.0,
          0.0
        ],
        "ImagePositionPatient": [
          -865.807,
          -875.446,
          -56.5301
        ],
        "ImageType": [
          "ORIGINAL",
          "PRIMARY",
          "M",
          "MB",
          "ND",
          "MOSAIC"
        ],
        "ImagedNucleus": "1H",
        "ImagingFrequency": 123.255,
        "InPlanePhaseEncodingDirection": "COL",
        "MRAcquisitionType": "2D",
        "MagneticFieldStrength": 3.0,
        "Manufacturer": "SIEMENS",
        "ManufacturerModelName": "Prisma",
        "Modality": "MR",
        "NominalInterval": 0,
        "NumberOfAverages": 1.0,
        "NumberOfFrames": 1,
        "NumberOfPhaseEncodingSteps": 84,
        "PercentPhaseFieldOfView": 100.0,
        "PercentSampling": 100.0,
        "PerformedProcedureStepStartTime": "160425.619000",
        "PhotometricInterpretation": "MONOCHROME2",
        "PixelBandwidth": 1860.0,
        "PixelRepresentation": 0,
        "PixelSpacing": [
          2.0,
          2.0
        ],
        "ProtocolName": "BOLD_resting1",
        "RepetitionTime": 2000.0,
        "Rows": 864,
        "SAR": 0.107137,
        "SamplesPerPixel": 1,
        "ScanOptions": [
          "PFP",
          "FS",
          "EXT"
        ],
        "ScanningSequence": "EP",
        "SequenceName": "epfid2d1_96",
        "SequenceVariant": [
          "SK",
          "SS"
        ],
        "SeriesDescription": "BOLD_resting1",
        "SeriesNumber": 15,
        "SeriesTime": "164525.109000",
        "SliceLocation": -56.5301,
        "SliceThickness": 2.0,
        "SmallestImagePixelValue": 0,
        "SoftwareVersions": "syngo MR E11",
        "SpacingBetweenSlices": 2.0,
        "SpecificCharacterSet": "ISO_IR 100",
        "StudyID": "1",
        "StudyTime": "160425.535000",
        "TransmitCoilName": "Body",
        "VariableFlipAngleFlag": "N",
        "WindowCenterWidthExplanation": "Algo1",
        "dBdt": 0.0
      },
      "slices": {}
    },
    "modality": "bold",
    "run_id": 1,
    "session_id": "01",
    "subject_id": "44",
    "task_id": "piper",
    "time": {
      "samples": {
        "AcquisitionNumber": [
          1,
          2,
          3,
          4,
          5,
          6,
          7,
          8,
          9,
          10,
          11,
          12,
          13,
          14,
          15,
          16,
          17,
          18,
          19,
          20,
          21,
          22,
          23,
          24,
          25,
          26,
          27,
          28,
          29,
          30,
          31,
          32,
          33,
          34,
          35,
          36,
          37,
          38,
          39,
          40,
          41,
          42,
          43,
          44,
          45,
          46,
          47,
          48,
          49,
          50,
          51,
          52,
          53,
          54,
          55,
          56,
          57,
          58,
          59,
          60,
          61,
          62,
          63,
          64,
          65,
          66,
          67,
          68,
          69,
          70,
          71,
          72,
          73,
          74,
          75,
          76,
          77,
          78,
          79,
          80,
          81,
          82,
          83,
          84,
          85,
          86,
          87,
          88,
          89,
          90,
          91,
          92,
          93,
          94,
          95,
          96,
          97,
          98,
          99,
          100,
          101,
          102,
          103,
          104,
          105,
          106,
          107,
          108,
          109,
          110,
          111,
          112,
          113,
          114,
          115,
          116,
          117,
          118,
          119,
          120,
          121,
          122,
          123,
          124,
          125,
          126,
          127,
          128,
          129,
          130,
          131,
          132,
          133,
          134,
          135,
          136,
          137,
          138,
          139,
          140,
          141,
          142,
          143,
          144,
          145,
          146,
          147,
          148,
          149,
          150
        ],
        "AcquisitionTime": [
          "164521.862500",
          "164523.862500",
          "164525.862500",
          "164527.862500",
          "164529.862500",
          "164531.862500",
          "164533.862500",
          "164535.862500",
          "164537.862500",
          "164539.862500",
          "164541.862500",
          "164543.862500",
          "164545.862500",
          "164547.862500",
          "164549.862500",
          "164551.862500",
          "164553.862500",
          "164555.862500",
          "164557.862500",
          "164559.862500",
          "164601.862500",
          "164603.862500",
          "164605.862500",
          "164607.862500",
          "164609.862500",
          "164611.862500",
          "164613.862500",
          "164615.862500",
          "164617.862500",
          "164619.862500",
          "164621.862500",
          "164623.862500",
          "164625.862500",
          "164627.862500",
          "164629.862500",
          "164631.862500",
          "164633.862500",
          "164635.862500",
          "164637.862500",
          "164639.862500",
          "164641.862500",
          "164643.862500",
          "164645.862500",
          "164647.862500",
          "164649.862500",
          "164651.862500",
          "164653.862500",
          "164655.862500",
          "164657.862500",
          "164659.862500",
          "164701.862500",
          "164703.862500",
          "164705.862500",
          "164707.862500",
          "164709.862500",
          "164711.862500",
          "164713.862500",
          "164715.862500",
          "164717.862500",
          "164719.862500",
          "164721.862500",
          "164723.862500",
          "164725.862500",
          "164727.862500",
          "164729.862500",
          "164731.862500",
          "164733.862500",
          "164735.862500",
          "164737.862500",
          "164739.862500",
          "164741.862500",
          "164743.862500",
          "164745.862500",
          "164747.862500",
          "164749.862500",
          "164751.862500",
          "164753.862500",
          "164755.862500",
          "164757.862500",
          "164759.862500",
          "164801.862500",
          "164803.862500",
          "164805.862500",
          "164807.862500",
          "164809.862500",
          "164811.862500",
          "164813.862500",
          "164815.862500",
          "164817.862500",
          "164819.862500",
          "164821.862500",
          "164823.862500",
          "164825.862500",
          "164827.862500",
          "164829.862500",
          "164831.862500",
          "164833.862500",
          "164835.862500",
          "164837.862500",
          "164839.862500",
          "164841.862500",
          "164843.862500",
          "164845.862500",
          "164847.862500",
          "164849.862500",
          "164851.862500",
          "164853.862500",
          "164855.862500",
          "164857.862500",
          "164859.862500",
          "164901.862500",
          "164903.862500",
          "164905.862500",
          "164907.862500",
          "164909.862500",
          "164911.862500",
          "164913.862500",
          "164915.862500",
          "164917.862500",
          "164919.862500",
          "164921.862500",
          "164923.862500",
          "164925.862500",
          "164927.862500",
          "164929.862500",
          "164931.862500",
          "164933.862500",
          "164935.862500",
          "164937.862500",
          "164939.862500",
          "164941.862500",
          "164943.862500",
          "164945.862500",
          "164947.862500",
          "164949.862500",
          "164951.862500",
          "164953.862500",
          "164955.862500",
          "164957.862500",
          "164959.862500",
          "165001.862500",
          "165003.862500",
          "165005.862500",
          "165007.862500",
          "165009.862500",
          "165011.862500",
          "165013.862500",
          "165015.862500",
          "165017.862500",
          "165019.862500"
        ],
        "ContentTime": [
          "164525.113000",
          "164527.108000",
          "164529.108000",
          "164531.108000",
          "164533.108000",
          "164535.108000",
          "164537.108000",
          "164539.108000",
          "164541.108000",
          "164543.108000",
          "164545.108000",
          "164547.108000",
          "164549.108000",
          "164551.108000",
          "164553.108000",
          "164555.108000",
          "164557.108000",
          "164559.108000",
          "164601.108000",
          "164603.108000",
          "164605.108000",
          "164607.108000",
          "164609.108000",
          "164611.108000",
          "164613.108000",
          "164615.108000",
          "164617.108000",
          "164619.108000",
          "164621.108000",
          "164623.108000",
          "164625.108000",
          "164627.108000",
          "164629.108000",
          "164631.108000",
          "164633.108000",
          "164635.108000",
          "164637.108000",
          "164639.108000",
          "164641.108000",
          "164643.108000",
          "164645.108000",
          "164647.108000",
          "164649.108000",
          "164651.108000",
          "164653.108000",
          "164655.108000",
          "164657.108000",
          "164659.108000",
          "164701.108000",
          "164703.108000",
          "164705.108000",
          "164707.108000",
          "164709.108000",
          "164711.108000",
          "164713.108000",
          "164715.108000",
          "164717.108000",
          "164719.108000",
          "164721.108000",
          "164723.108000",
          "164725.108000",
          "164727.108000",
          "164729.108000",
          "164731.108000",
          "164733.108000",
          "164735.108000",
          "164737.108000",
          "164739.108000",
          "164741.108000",
          "164743.108000",
          "164745.108000",
          "164747.108000",
          "164749.108000",
          "164751.108000",
          "164753.108000",
          "164755.108000",
          "164757.108000",
          "164759.108000",
          "164801.108000",
          "164803.108000",
          "164805.108000",
          "164807.108000",
          "164809.108000",
          "164811.108000",
          "164813.108000",
          "164815.108000",
          "164817.108000",
          "164819.108000",
          "164821.108000",
          "164823.108000",
          "164825.108000",
          "164827.108000",
          "164829.108000",
          "164831.108000",
          "164833.108000",
          "164835.108000",
          "164837.108000",
          "164839.108000",
          "164841.108000",
          "164843.108000",
          "164845.108000",
          "164847.108000",
          "164849.108000",
          "164851.108000",
          "164853.108000",
          "164855.108000",
          "164857.108000",
          "164859.108000",
          "164901.108000",
          "164903.108000",
          "164905.108000",
          "164907.108000",
          "164909.108000",
          "164911.108000",
          "164913.108000",
          "164915.108000",
          "164917.108000",
          "164919.108000",
          "164921.108000",
          "164923.108000",
          "164925.108000",
          "164927.108000",
          "164929.108000",
          "164931.108000",
          "164933.108000",
          "164935.108000",
          "164937.108000",
          "164939.108000",
          "164941.108000",
          "164943.108000",
          "164945.108000",
          "164947.108000",
          "164949.108000",
          "164951.108000",
          "164953.108000",
          "164955.108000",
          "164957.108000",
          "164959.108000",
          "165001.108000",
          "165003.108000",
          "165005.108000",
          "165007.108000",
          "165009.108000",
          "165011.108000",
          "165013.108000",
          "165015.108000",
          "165017.108000",
          "165019.108000",
          "165021.108000",
          "165023.130000"
        ],
        "InstanceCreationTime": [
          "164525.113000",
          "164527.108000",
          "164529.108000",
          "164531.108000",
          "164533.108000",
          "164535.108000",
          "164537.108000",
          "164539.108000",
          "164541.108000",
          "164543.108000",
          "164545.108000",
          "164547.108000",
          "164549.108000",
          "164551.108000",
          "164553.108000",
          "164555.108000",
          "164557.108000",
          "164559.108000",
          "164601.108000",
          "164603.108000",
          "164605.108000",
          "164607.108000",
          "164609.108000",
          "164611.108000",
          "164613.108000",
          "164615.108000",
          "164617.108000",
          "164619.108000",
          "164621.108000",
          "164623.108000",
          "164625.108000",
          "164627.108000",
          "164629.108000",
          "164631.108000",
          "164633.108000",
          "164635.108000",
          "164637.108000",
          "164639.108000",
          "164641.108000",
          "164643.108000",
          "164645.108000",
          "164647.108000",
          "164649.108000",
          "164651.108000",
          "164653.108000",
          "164655.108000",
          "164657.108000",
          "164659.108000",
          "164701.108000",
          "164703.108000",
          "164705.108000",
          "164707.108000",
          "164709.108000",
          "164711.108000",
          "164713.108000",
          "164715.108000",
          "164717.108000",
          "164719.108000",
          "164721.108000",
          "164723.108000",
          "164725.108000",
          "164727.108000",
          "164729.108000",
          "164731.108000",
          "164733.108000",
          "164735.108000",
          "164737.108000",
          "164739.108000",
          "164741.108000",
          "164743.108000",
          "164745.108000",
          "164747.108000",
          "164749.108000",
          "164751.108000",
          "164753.108000",
          "164755.108000",
          "164757.108000",
          "164759.108000",
          "164801.108000",
          "164803.108000",
          "164805.108000",
          "164807.108000",
          "164809.108000",
          "164811.108000",
          "164813.108000",
          "164815.108000",
          "164817.108000",
          "164819.108000",
          "164821.108000",
          "164823.108000",
          "164825.108000",
          "164827.108000",
          "164829.108000",
          "164831.108000",
          "164833.108000",
          "164835.108000",
          "164837.108000",
          "164839.108000",
          "164841.108000",
          "164843.108000",
          "164845.108000",
          "164847.108000",
          "164849.108000",
          "164851.108000",
          "164853.108000",
          "164855.108000",
          "164857.108000",
          "164859.108000",
          "164901.108000",
          "164903.108000",
          "164905.108000",
          "164907.108000",
          "164909.108000",
          "164911.108000",
          "164913.108000",
          "164915.108000",
          "164917.108000",
          "164919.108000",
          "164921.108000",
          "164923.108000",
          "164925.108000",
          "164927.108000",
          "164929.108000",
          "164931.108000",
          "164933.108000",
          "164935.108000",
          "164937.108000",
          "164939.108000",
          "164941.108000",
          "164943.108000",
          "164945.108000",
          "164947.108000",
          "164949.108000",
          "164951.108000",
          "164953.108000",
          "164955.108000",
          "164957.108000",
          "164959.108000",
          "165001.108000",
          "165003.108000",
          "165005.108000",
          "165007.108000",
          "165009.108000",
          "165011.108000",
          "165013.108000",
          "165015.108000",
          "165017.108000",
          "165019.108000",
          "165021.108000",
          "165023.130000"
        ],
        "InstanceNumber": [
          1,
          2,
          3,
          4,
          5,
          6,
          7,
          8,
          9,
          10,
          11,
          12,
          13,
          14,
          15,
          16,
          17,
          18,
          19,
          20,
          21,
          22,
          23,
          24,
          25,
          26,
          27,
          28,
          29,
          30,
          31,
          32,
          33,
          34,
          35,
          36,
          37,
          38,
          39,
          40,
          41,
          42,
          43,
          44,
          45,
          46,
          47,
          48,
          49,
          50,
          51,
          52,
          53,
          54,
          55,
          56,
          57,
          58,
          59,
          60,
          61,
          62,
          63,
          64,
          65,
          66,
          67,
          68,
          69,
          70,
          71,
          72,
          73,
          74,
          75,
          76,
          77,
          78,
          79,
          80,
          81,
          82,
          83,
          84,
          85,
          86,
          87,
          88,
          89,
          90,
          91,
          92,
          93,
          94,
          95,
          96,
          97,
          98,
          99,
          100,
          101,
          102,
          103,
          104,
          105,
          106,
          107,
          108,
          109,
          110,
          111,
          112,
          113,
          114,
          115,
          116,
          117,
          118,
          119,
          120,
          121,
          122,
          123,
          124,
          125,
          126,
          127,
          128,
          129,
          130,
          131,
          132,
          133,
          134,
          135,
          136,
          137,
          138,
          139,
          140,
          141,
          142,
          143,
          144,
          145,
          146,
          147,
          148,
          149,
          150
        ],
        "LargestImagePixelValue": [
          23801,
          24107,
          24944,
          25203,
          25325,
          25303,
          25514,
          25242,
          24772,
          24892,
          24866,
          24730,
          24672,
          23807,
          24099,
          24500,
          24770,
          24732,
          24450,
          24351,
          25059,
          25459,
          25376,
          24982,
          25122,
          24549,
          24214,
          24918,
          24269,
          24519,
          24904,
          24912,
          24514,
          24298,
          24120,
          24471,
          24347,
          24643,
          24203,
          25325,
          24607,
          24656,
          24429,
          25381,
          24816,
          24012,
          24605,
          24423,
          24007,
          24655,
          25309,
          25279,
          24383,
          23999,
          24657,
          24102,
          23888,
          23889,
          24338,
          23963,
          24144,
          23940,
          24817,
          24495,
          25602,
          24195,
          24170,
          24220,
          24209,
          24021,
          24341,
          24036,
          23370,
          22876,
          23089,
          23400,
          23864,
          24035,
          23649,
          23446,
          23746,
          23697,
          23388,
          23751,
          23185,
          24093,
          24221,
          24327,
          23428,
          22896,
          23497,
          23546,
          23571,
          23654,
          24551,
          24201,
          23582,
          22970,
          23576,
          23382,
          23214,
          23439,
          23533,
          23781,
          23645,
          23545,
          23681,
          23848,
          23844,
          23754,
          23624,
          23815,
          23643,
          23359,
          24563,
          23852,
          23460,
          23495,
          24236,
          23642,
          23314,
          23997,
          23677,
          23614,
          23723,
          23700,
          23858,
          23898,
          23774,
          23735,
          23959,
          23590,
          24004,
          23510,
          23450,
          24077,
          23638,
          23543,
          24223,
          23974,
          24226,
          23932,
          23776,
          23957,
          24309,
          24090,
          24170,
          23660,
          24076,
          23815
        ],
        "TriggerTime": [
          11655.0,
          13655.0,
          15655.0,
          17655.0,
          19655.0,
          21655.0,
          23655.0,
          25655.0,
          27655.0,
          29655.0,
          31655.0,
          33655.0,
          35655.0,
          37655.0,
          39655.0,
          41655.0,
          43655.0,
          45655.0,
          47655.0,
          49655.0,
          51655.0,
          53655.0,
          55655.0,
          57655.0,
          59655.0,
          61655.0,
          63655.0,
          65655.0,
          67655.0,
          69655.0,
          71655.0,
          73655.0,
          75655.0,
          77655.0,
          79655.0,
          81655.0,
          83655.0,
          85655.0,
          87655.0,
          89655.0,
          91655.0,
          93655.0,
          95655.0,
          97655.0,
          99655.0,
          101655.0,
          103655.0,
          105655.0,
          107655.0,
          109655.0,
          111655.0,
          113655.0,
          115655.0,
          117655.0,
          119655.0,
          121655.0,
          123655.0,
          125655.0,
          127655.0,
          129655.0,
          131655.0,
          133655.0,
          135655.0,
          137655.0,
          139655.0,
          141655.0,
          143655.0,
          145655.0,
          147655.0,
          149655.0,
          151655.0,
          153655.0,
          155655.0,
          157655.0,
          159655.0,
          161655.0,
          163655.0,
          165655.0,
          167655.0,
          169655.0,
          171655.0,
          173655.0,
          175655.0,
          177655.0,
          179655.0,
          181655.0,
          183655.0,
          185655.0,
          187655.0,
          189655.0,
          191655.0,
          193655.0,
          195655.0,
          197655.0,
          199655.0,
          201655.0,
          203655.0,
          205655.0,
          207655.0,
          209655.0,
          211655.0,
          213655.0,
          215655.0,
          217655.0,
          219655.0,
          221655.0,
          223655.0,
          225655.0,
          227655.0,
          229655.0,
          231655.0,
          233655.0,
          235655.0,
          237655.0,
          239655.0,
          241655.0,
          243655.0,
          245655.0,
          247655.0,
          249655.0,
          251655.0,
          253655.0,
          255655.0,
          257655.0,
          259655.0,
          261655.0,
          263655.0,
          265655.0,
          267655.0,
          269655.0,
          271655.0,
          273655.0,
          275655.0,
          277655.0,
          279655.0,
          281655.0,
          283655.0,
          285655.0,
          287655.0,
          289655.0,
          291655.0,
          293655.0,
          295655.0,
          297655.0,
          299655.0,
          301655.0,
          303655.0,
          305655.0,
          307655.0,
          309655.0
        ],
        "WindowCenter": [
          8092.0,
          8087.0,
          8081.0,
          8076.0,
          8077.0,
          8083.0,
          8103.0,
          8088.0,
          8091.0,
          8090.0,
          8091.0,
          8093.0,
          8123.0,
          8114.0,
          8100.0,
          8096.0,
          8112.0,
          8115.0,
          8126.0,
          8119.0,
          8126.0,
          8161.0,
          8164.0,
          8146.0,
          8123.0,
          8116.0,
          8129.0,
          8138.0,
          8114.0,
          8120.0,
          8135.0,
          8146.0,
          8150.0,
          8152.0,
          8146.0,
          8153.0,
          8152.0,
          8149.0,
          8131.0,
          8144.0,
          8136.0,
          8127.0,
          8120.0,
          8148.0,
          8148.0,
          8142.0,
          8145.0,
          8144.0,
          8134.0,
          8129.0,
          8146.0,
          8157.0,
          8155.0,
          8159.0,
          8173.0,
          8178.0,
          8168.0,
          8169.0,
          8174.0,
          8158.0,
          8137.0,
          8125.0,
          8137.0,
          8120.0,
          8123.0,
          8163.0,
          8146.0,
          8137.0,
          8116.0,
          8107.0,
          8130.0,
          8113.0,
          8094.0,
          8081.0,
          8078.0,
          8094.0,
          8122.0,
          8144.0,
          8137.0,
          8152.0,
          8190.0,
          8162.0,
          8142.0,
          8135.0,
          8130.0,
          8153.0,
          8184.0,
          8159.0,
          8164.0,
          8143.0,
          8121.0,
          8088.0,
          8076.0,
          8094.0,
          8119.0,
          8134.0,
          8140.0,
          8147.0,
          8180.0,
          8175.0,
          8156.0,
          8153.0,
          8151.0,
          8159.0,
          8148.0,
          8150.0,
          8159.0,
          8166.0,
          8167.0,
          8167.0,
          8170.0,
          8170.0,
          8161.0,
          8162.0,
          8202.0,
          8189.0,
          8162.0,
          8159.0,
          8174.0,
          8168.0,
          8169.0,
          8177.0,
          8169.0,
          8167.0,
          8150.0,
          8149.0,
          8173.0,
          8164.0,
          8147.0,
          8147.0,
          8144.0,
          8137.0,
          8154.0,
          8161.0,
          8173.0,
          8168.0,
          8139.0,
          8139.0,
          8165.0,
          8166.0,
          8210.0,
          8188.0,
          8151.0,
          8146.0,
          8145.0,
