{
  "aor": 0.0021944666666666667,
  "aqi": 0.004454023666666666,
  "bids_meta": {
    "ConversionSoftware": "dcm2niix",
    "ConversionSoftwareVersion": "v1.0.20170207",
    "EchoTime": 0.0302,
    "EffectiveEchoSpacing": 0.000640002,
    "FlipAngle": 90,
    "ImageType": [
      "ORIGINAL",
      "PRIMARY",
      "M",
      "MB",
      "ND",
      "MOSAIC"
    ],
    "MagneticFieldStrength": 3,
    "Manufacturer": "Siemens",
    "ManufacturersModelName": "Prisma",
    "PhaseEncodingDirection": "j-",
    "ProcedureStepDescription": "CAMRIS_CHOP",
    "ProtocolName": "BOLD_resting1",
    "RepetitionTime": 2,
    "SliceTiming": [
      0,
      0.08,
      0.16,
      0.2375,
      0.3175,
      0.3975,
      0.475,
      0.555,
      0.635,
      0.7125,
      0.7925,
      0.8725,
      0.95,
      1.03,
      1.11,
      1.1875,
      1.2675,
      1.3475,
      1.425,
      1.505,
      1.585,
      1.6625,
      1.7425,
      1.8225,
      1.9025,
      0,
      0.08,
      0.16,
      0.2375,
      0.3175,
      0.3975,
      0.475,
      0.555,
      0.635,
      0.7125,
      0.7925,
      0.8725,
      0.95,
      1.03,
      1.11,
      1.1875,
      1.2675,
      1.3475,
      1.425,
      1.505,
      1.585,
      1.6625,
      1.7425,
      1.8225,
      1.9025,
      0,
      0.08,
      0.16,
      0.2375,
      0.3175,
      0.3975,
      0.475,
      0.555,
      0.635,
      0.7125,
      0.7925,
      0.8725,
      0.95,
      1.03,
      1.11,
      1.1875,
      1.2675,
      1.3475,
      1.425,
      1.505,
      1.585,
      1.6625,
      1.7425,
      1.8225,
      1.9025
    ],
    "TaskName": "piper",
    "dataset": "ds004228",
    "dcmmeta_affine": [
      [
        -2.0,
        0.0,
        0.0,
        93.58999633789062
      ],
      [
        0.0,
        2.0,
        0.0,
        -75.9280014038086
      ],
      [
        0.0,
        0.0,
        2.0,
        -28.819299697875977
      ],
      [
        0.0,
        0.0,
        0.0,
        1.0
      ]
    ],
    "dcmmeta_reorient_transform": [
      [
        0.0,
        -1.0,
        0.0,
        95.0
      ],
      [
        1.0,
        0.0,
        0.0,
        0.0
      ],
      [
        0.0,
        0.0,
        1.0,
        0.0
      ],
      [
        0.0,
        0.0,
        0.0,
        1.0
      ]
    ],
    "dcmmeta_shape": [
      96,
      96,
      75,
      150
    ],
    "dcmmeta_slice_dim": 2,
    "dcmmeta_version": 0.6,
    "global": {
      "const": {
        "AcquisitionMatrix": [
          96,
          0,
          0,
          96
        ],
        "AngioFlag": "N",
        "BitsAllocated": 16,
        "BitsStored": 16,
        "BodyPartExamined": "BRAIN",
        "CardiacNumberOfImages": 1,
        "Columns": 864,
        "EchoNumbers": 1,
        "EchoTime": 30.2,
        "EchoTrainLength": 84,
        "FlipAngle": 90.0,
        "HighBit": 15,
        "ImageOrientationPatient": [
          1.0,
          0.0,
          0.0,
          0.0,
          1.0,
          0.0
        ],
        "ImagePositionPatient": [
          -861.59,
          -882.072,
          -28.8193
        ],
        "ImageType": [
          "ORIGINAL",
          "PRIMARY",
          "M",
          "MB",
          "ND",
          "MOSAIC"
        ],
        "ImagedNucleus": "1H",
        "ImagingFrequency": 123.263,
        "InPlanePhaseEncodingDirection": "COL",
        "MRAcquisitionType": "2D",
        "MagneticFieldStrength": 3.0,
        "Manufacturer": "SIEMENS",
        "ManufacturerModelName": "Prisma",
        "Modality": "MR",
        "NominalInterval": 0,
        "NumberOfAverages": 1.0,
        "NumberOfFrames": 1,
        "NumberOfPhaseEncodingSteps": 84,
        "PercentPhaseFieldOfView": 100.0,
        "PercentSampling": 100.0,
        "PerformedProcedureStepStartTime": "135706.976000",
        "PhotometricInterpretation": "MONOCHROME2",
        "PixelBandwidth": 1860.0,
        "PixelRepresentation": 0,
        "PixelSpacing": [
          2.0,
          2.0
        ],
        "ProtocolName": "BOLD_resting1",
        "RepetitionTime": 2000.0,
        "Rows": 864,
        "SAR": 0.107939,
        "SamplesPerPixel": 1,
        "ScanOptions": [
          "PFP",
          "FS",
          "EXT"
        ],
        "ScanningSequence": "EP",
        "SequenceName": "epfid2d1_96",
        "SequenceVariant": [
          "SK",
          "SS"
        ],
        "SeriesDescription": "BOLD_resting1",
        "SeriesNumber": 19,
        "SeriesTime": "143951.470000",
        "SliceLocation": -28.8193,
        "SliceThickness": 2.0,
        "SmallestImagePixelValue": 0,
        "SoftwareVersions": "syngo MR E11",
        "SpacingBetweenSlices": 2.0,
        "SpecificCharacterSet": "ISO_IR 100",
        "StudyID": "1",
        "StudyTime": "135706.910000",
        "TransmitCoilName": "Body",
        "VariableFlipAngleFlag": "N",
        "WindowCenterWidthExplanation": "Algo1",
        "dBdt": 0.0
      },
      "slices": {}
    },
    "modality": "bold",
    "run_id": 1,
    "session_id": "01",
    "subject_id": "33",
    "task_id": "piper",
    "time": {
      "samples": {
        "AcquisitionNumber": [
          1,
          2,
          3,
          4,
          5,
          6,
          7,
          8,
          9,
          10,
          11,
          12,
          13,
          14,
          15,
          16,
          17,
          18,
          19,
          20,
          21,
          22,
          23,
          24,
          25,
          26,
          27,
          28,
          29,
          30,
          31,
          32,
          33,
          34,
          35,
          36,
          37,
          38,
          39,
          40,
          41,
          42,
          43,
          44,
          45,
          46,
          47,
          48,
          49,
          50,
          51,
          52,
          53,
          54,
          55,
          56,
          57,
          58,
          59,
          60,
          61,
          62,
          63,
          64,
          65,
          66,
          67,
          68,
          69,
          70,
          71,
          72,
          73,
          74,
          75,
          76,
          77,
          78,
          79,
          80,
          81,
          82,
          83,
          84,
          85,
          86,
          87,
          88,
          89,
          90,
          91,
          92,
          93,
          94,
          95,
          96,
          97,
          98,
          99,
          100,
          101,
          102,
          103,
          104,
          105,
          106,
          107,
          108,
          109,
          110,
          111,
          112,
          113,
          114,
          115,
          116,
          117,
          118,
          119,
          120,
          121,
          122,
          123,
          124,
          125,
          126,
          127,
          128,
          129,
          130,
          131,
          132,
          133,
          134,
          135,
          136,
          137,
          138,
          139,
          140,
          141,
          142,
          143,
          144,
          145,
          146,
          147,
          148,
          149,
          150
        ],
        "AcquisitionTime": [
          "143948.585000",
          "143950.585000",
          "143952.585000",
          "143954.585000",
          "143956.585000",
          "143958.585000",
          "144000.585000",
          "144002.585000",
          "144004.585000",
          "144006.585000",
          "144008.585000",
          "144010.585000",
          "144012.585000",
          "144014.585000",
          "144016.585000",
          "144018.585000",
          "144020.585000",
          "144022.585000",
          "144024.585000",
          "144026.585000",
          "144028.585000",
          "144030.585000",
          "144032.585000",
          "144034.585000",
          "144036.585000",
          "144038.585000",
          "144040.585000",
          "144042.585000",
          "144044.585000",
          "144046.585000",
          "144048.585000",
          "144050.585000",
          "144052.585000",
          "144054.585000",
          "144056.585000",
          "144058.585000",
          "144100.585000",
          "144102.585000",
          "144104.585000",
          "144106.585000",
          "144108.585000",
          "144110.585000",
          "144112.585000",
          "144114.585000",
          "144116.585000",
          "144118.585000",
          "144120.585000",
          "144122.585000",
          "144124.585000",
          "144126.585000",
          "144128.585000",
          "144130.585000",
          "144132.585000",
          "144134.585000",
          "144136.585000",
          "144138.585000",
          "144140.585000",
          "144142.585000",
          "144144.585000",
          "144146.585000",
          "144148.585000",
          "144150.585000",
          "144152.585000",
          "144154.585000",
          "144156.585000",
          "144158.585000",
          "144200.585000",
          "144202.585000",
          "144204.585000",
          "144206.585000",
          "144208.585000",
          "144210.585000",
          "144212.585000",
          "144214.585000",
          "144216.585000",
          "144218.585000",
          "144220.585000",
          "144222.585000",
          "144224.585000",
          "144226.585000",
          "144228.585000",
          "144230.585000",
          "144232.585000",
          "144234.585000",
          "144236.585000",
          "144238.585000",
          "144240.585000",
          "144242.585000",
          "144244.585000",
          "144246.585000",
          "144248.585000",
          "144250.585000",
          "144252.585000",
          "144254.585000",
          "144256.585000",
          "144258.585000",
          "144300.585000",
          "144302.585000",
          "144304.585000",
          "144306.585000",
          "144308.585000",
          "144310.585000",
          "144312.585000",
          "144314.585000",
          "144316.585000",
          "144318.585000",
          "144320.585000",
          "144322.585000",
          "144324.585000",
          "144326.585000",
          "144328.585000",
          "144330.585000",
          "144332.585000",
          "144334.585000",
          "144336.585000",
          "144338.585000",
          "144340.585000",
          "144342.585000",
          "144344.585000",
          "144346.585000",
          "144348.585000",
          "144350.585000",
          "144352.585000",
          "144354.585000",
          "144356.585000",
          "144358.585000",
          "144400.585000",
          "144402.585000",
          "144404.585000",
          "144406.585000",
          "144408.585000",
          "144410.585000",
          "144412.585000",
          "144414.585000",
          "144416.585000",
          "144418.585000",
          "144420.585000",
          "144422.585000",
          "144424.585000",
          "144426.585000",
          "144428.585000",
          "144430.585000",
          "144432.585000",
          "144434.585000",
          "144436.585000",
          "144438.585000",
          "144440.585000",
          "144442.585000",
          "144444.585000",
          "144446.585000"
        ],
        "ContentTime": [
          "143951.474000",
          "143953.448000",
          "143955.448000",
          "143957.449000",
          "143959.449000",
          "144001.449000",
          "144003.449000",
          "144005.449000",
          "144007.449000",
          "144009.449000",
          "144011.448000",
          "144013.448000",
          "144015.449000",
          "144017.449000",
          "144019.449000",
          "144021.449000",
          "144023.449000",
          "144025.449000",
          "144027.449000",
          "144029.448000",
          "144031.448000",
          "144033.449000",
          "144035.449000",
          "144037.449000",
          "144039.449000",
          "144041.449000",
          "144043.449000",
          "144045.448000",
          "144047.448000",
          "144049.949000",
          "144051.449000",
          "144053.449000",
          "144055.449000",
          "144057.449000",
          "144059.449000",
          "144101.449000",
          "144103.448000",
          "144105.448000",
          "144107.449000",
          "144109.449000",
          "144111.449000",
          "144113.449000",
          "144115.449000",
          "144117.449000",
          "144119.449000",
          "144121.448000",
          "144123.448000",
          "144125.449000",
          "144127.449000",
          "144129.449000",
          "144131.449000",
          "144133.449000",
          "144135.449000",
          "144137.449000",
          "144139.448000",
          "144141.448000",
          "144143.449000",
          "144145.449000",
          "144147.449000",
          "144149.449000",
          "144151.449000",
          "144153.449000",
          "144155.448000",
          "144157.448000",
          "144159.449000",
          "144201.449000",
          "144203.449000",
          "144205.449000",
          "144207.449000",
          "144209.449000",
          "144211.449000",
          "144213.448000",
          "144215.448000",
          "144217.449000",
          "144219.449000",
          "144221.449000",
          "144223.449000",
          "144225.449000",
          "144227.449000",
          "144229.449000",
          "144231.448000",
          "144233.448000",
          "144235.449000",
          "144237.449000",
          "144239.449000",
          "144241.449000",
          "144243.449000",
          "144245.449000",
          "144247.449000",
          "144249.448000",
          "144251.448000",
          "144253.449000",
          "144255.449000",
          "144257.449000",
          "144259.449000",
          "144301.449000",
          "144303.449000",
          "144305.448000",
          "144307.448000",
          "144309.449000",
          "144311.449000",
          "144313.449000",
          "144315.449000",
          "144317.449000",
          "144319.449000",
          "144321.449000",
          "144323.448000",
          "144325.468000",
          "144327.449000",
          "144329.449000",
          "144331.449000",
          "144333.449000",
          "144335.449000",
          "144337.449000",
          "144339.449000",
          "144341.448000",
          "144343.448000",
          "144345.449000",
          "144347.449000",
          "144349.449000",
          "144351.449000",
          "144353.449000",
          "144355.449000",
          "144357.449000",
          "144359.448000",
          "144401.448000",
          "144403.449000",
          "144405.449000",
          "144407.449000",
          "144409.449000",
          "144411.449000",
          "144413.449000",
          "144415.448000",
          "144417.448000",
          "144419.449000",
          "144421.449000",
          "144423.449000",
          "144425.449000",
          "144427.459000",
          "144429.449000",
          "144431.449000",
          "144433.448000",
          "144435.448000",
          "144437.449000",
          "144439.449000",
          "144441.449000",
          "144443.449000",
          "144445.449000",
          "144447.449000",
          "144449.264000"
        ],
        "InstanceCreationTime": [
          "143951.474000",
          "143953.448000",
          "143955.448000",
          "143957.449000",
          "143959.449000",
          "144001.449000",
          "144003.449000",
          "144005.449000",
          "144007.449000",
          "144009.449000",
          "144011.448000",
          "144013.448000",
          "144015.449000",
          "144017.449000",
          "144019.449000",
          "144021.449000",
          "144023.449000",
          "144025.449000",
          "144027.449000",
          "144029.448000",
          "144031.448000",
          "144033.449000",
          "144035.449000",
          "144037.449000",
          "144039.449000",
          "144041.449000",
          "144043.449000",
          "144045.448000",
          "144047.448000",
          "144049.949000",
          "144051.449000",
          "144053.449000",
          "144055.449000",
          "144057.449000",
          "144059.449000",
          "144101.449000",
          "144103.448000",
          "144105.448000",
          "144107.449000",
          "144109.449000",
          "144111.449000",
          "144113.449000",
          "144115.449000",
          "144117.449000",
          "144119.449000",
          "144121.448000",
          "144123.448000",
          "144125.449000",
          "144127.449000",
          "144129.449000",
          "144131.449000",
          "144133.449000",
          "144135.449000",
          "144137.449000",
          "144139.448000",
          "144141.448000",
          "144143.449000",
          "144145.449000",
          "144147.449000",
          "144149.449000",
          "144151.449000",
          "144153.449000",
          "144155.448000",
          "144157.448000",
          "144159.449000",
          "144201.449000",
          "144203.449000",
          "144205.449000",
          "144207.449000",
          "144209.449000",
          "144211.449000",
          "144213.448000",
          "144215.448000",
          "144217.449000",
          "144219.449000",
          "144221.449000",
          "144223.449000",
          "144225.449000",
          "144227.449000",
          "144229.449000",
          "144231.448000",
          "144233.448000",
          "144235.449000",
          "144237.449000",
          "144239.449000",
          "144241.449000",
          "144243.449000",
          "144245.449000",
          "144247.449000",
          "144249.448000",
          "144251.448000",
          "144253.449000",
          "144255.449000",
          "144257.449000",
          "144259.449000",
          "144301.449000",
          "144303.449000",
          "144305.448000",
          "144307.448000",
          "144309.449000",
          "144311.449000",
          "144313.449000",
          "144315.449000",
          "144317.449000",
          "144319.449000",
          "144321.449000",
          "144323.448000",
          "144325.468000",
          "144327.449000",
          "144329.449000",
          "144331.449000",
          "144333.449000",
          "144335.449000",
          "144337.449000",
          "144339.449000",
          "144341.448000",
          "144343.448000",
          "144345.449000",
          "144347.449000",
          "144349.449000",
          "144351.449000",
          "144353.449000",
          "144355.449000",
          "144357.449000",
          "144359.448000",
          "144401.448000",
          "144403.449000",
          "144405.449000",
          "144407.449000",
          "144409.449000",
          "144411.449000",
          "144413.449000",
          "144415.448000",
          "144417.448000",
          "144419.449000",
          "144421.449000",
          "144423.449000",
          "144425.449000",
          "144427.459000",
          "144429.449000",
          "144431.449000",
          "144433.448000",
          "144435.448000",
          "144437.449000",
          "144439.449000",
          "144441.449000",
          "144443.449000",
          "144445.449000",
          "144447.449000",
          "144449.264000"
        ],
        "InstanceNumber": [
          1,
          2,
          3,
          4,
          5,
          6,
          7,
          8,
          9,
          10,
          11,
          12,
          13,
          14,
          15,
          16,
          17,
          18,
          19,
          20,
          21,
          22,
          23,
          24,
          25,
          26,
          27,
          28,
          29,
          30,
          31,
          32,
          33,
          34,
          35,
          36,
          37,
          38,
          39,
          40,
          41,
          42,
          43,
          44,
          45,
          46,
          47,
          48,
          49,
          50,
          51,
          52,
          53,
          54,
          55,
          56,
          57,
          58,
          59,
          60,
          61,
          62,
          63,
          64,
          65,
          66,
          67,
          68,
          69,
          70,
          71,
          72,
          73,
          74,
          75,
          76,
          77,
          78,
          79,
          80,
          81,
          82,
          83,
          84,
          85,
          86,
          87,
          88,
          89,
          90,
          91,
          92,
          93,
          94,
          95,
          96,
          97,
          98,
          99,
          100,
          101,
          102,
          103,
          104,
          105,
          106,
          107,
          108,
          109,
          110,
          111,
          112,
          113,
          114,
          115,
          116,
          117,
          118,
          119,
          120,
          121,
          122,
          123,
          124,
          125,
          126,
          127,
          128,
          129,
          130,
          131,
          132,
          133,
          134,
          135,
          136,
          137,
          138,
          139,
          140,
          141,
          142,
          143,
          144,
          145,
          146,
          147,
          148,
          149,
          150
        ],
        "LargestImagePixelValue": [
          40183,
          38585,
          40257,
          39250,
          39054,
          39331,
          39834,
          39646,
          39812,
          39844,
          39947,
          39577,
          39728,
          39195,
          39940,
          40062,
          40406,
          39761,
          40064,
          39872,
          39753,
          39977,
          40721,
          39828,
          39333,
          39836,
          39440,
          39293,
          39887,
          39828,
          39701,
          39277,
          39486,
          39541,
          39730,
          39422,
          39296,
          40022,
          39710,
          39857,
          39968,
          39713,
          39793,
          40246,
          39603,
          39686,
          39543,
          40203,
          39883,
          39747,
          39835,
          39790,
          39781,
          38387,
          39508,
          39430,
          39563,
          39481,
          39188,
          39571,
          39378,
          39314,
          39119,
          38881,
          39107,
          39052,
          39950,
          39583,
          39041,
          39129,
          39113,
          39458,
          39612,
          39396,
          39198,
          39204,
          39164,
          39055,
          39154,
          39323,
          38925,
          39399,
          39211,
          39520,
          39492,
          39297,
          39434,
          39241,
          39011,
          39476,
          39438,
          39504,
          39197,
          39311,
          39350,
          39395,
          39250,
          39470,
          39235,
          39125,
          39516,
          39118,
          39565,
          39166,
          39564,
          39207,
          39182,
          39173,
          38925,
          38838,
          39435,
          39144,
          39087,
          39399,
          39337,
          39586,
          39258,
          39278,
          38831,
          38650,
          39142,
          39118,
          39064,
          38971,
          38974,
          39060,
          38581,
          39148,
          38930,
          39091,
          38867,
          38745,
          39457,
          39241,
          39323,
          39382,
          39390,
          39137,
          39405,
          39157,
          39670,
          39282,
          39317,
          38859,
          39217,
          39470,
          39348,
          39394,
          39209,
          39624
        ],
        "TriggerTime": [
          11715.0,
          13715.0,
          15715.0,
          17715.0,
          19715.0,
          21715.0,
          23715.0,
          25715.0,
          27715.0,
          29715.0,
          31715.0,
          33715.0,
          35715.0,
          37715.0,
          39715.0,
          41715.0,
          43715.0,
          45715.0,
          47715.0,
          49715.0,
          51715.0,
          53715.0,
          55715.0,
          57715.0,
          59715.0,
          61715.0,
          63715.0,
          65715.0,
          67715.0,
          69715.0,
          71715.0,
          73715.0,
          75715.0,
          77715.0,
          79715.0,
          81715.0,
          83715.0,
          85715.0,
          87715.0,
          89715.0,
          91715.0,
          93715.0,
          95715.0,
          97715.0,
          99715.0,
          101715.0,
          103715.0,
          105715.0,
          107715.0,
          109715.0,
          111715.0,
          113715.0,
          115715.0,
          117715.0,
          119715.0,
          121715.0,
          123715.0,
          125715.0,
          127715.0,
          129715.0,
          131715.0,
          133715.0,
          135715.0,
          137715.0,
          139715.0,
          141715.0,
          143715.0,
          145715.0,
          147715.0,
          149715.0,
          151715.0,
          153715.0,
          155715.0,
          157715.0,
          159715.0,
          161715.0,
          163715.0,
          165715.0,
          167715.0,
          169715.0,
          171715.0,
          173715.0,
          175715.0,
          177715.0,
          179715.0,
          181715.0,
          183715.0,
          185715.0,
          187715.0,
          189715.0,
          191715.0,
          193715.0,
          195715.0,
          197715.0,
          199715.0,
          201715.0,
          203715.0,
          205715.0,
          207715.0,
          209715.0,
          211715.0,
          213715.0,
          215715.0,
          217715.0,
          219715.0,
          221715.0,
          223715.0,
          225715.0,
          227715.0,
          229715.0,
          231715.0,
          233715.0,
          235715.0,
          237715.0,
          239715.0,
          241715.0,
          243715.0,
          245715.0,
          247715.0,
          249715.0,
          251715.0,
          253715.0,
          255715.0,
          257715.0,
          259715.0,
          261715.0,
          263715.0,
          265715.0,
          267715.0,
          269715.0,
          271715.0,
          273715.0,
          275715.0,
          277715.0,
          279715.0,
          281715.0,
          283715.0,
          285715.0,
          287715.0,
          289715.0,
          291715.0,
          293715.0,
          295715.0,
          297715.0,
          299715.0,
          301715.0,
          303715.0,
          305715.0,
          307715.0,
          309715.0
        ],
        "WindowCenter": [
          9480.0,
          9435.0,
          9460.0,
          9457.0,
          9425.0,
          9465.0,
          9471.0,
          9466.0,
          9496.0,
          9516.0,
          9509.0,
          9500.0,
          9507.0,
          9506.0,
          9502.0,
          9493.0,
          9492.0,
          9467.0,
          9455.0,
          9470.0,
          9473.0,
          9474.0,
          9479.0,
          9468.0,
          9475.0,
          9484.0,
          9475.0,
          9461.0,
          9464.0,
          9470.0,
          9475.0,
          9477.0,
          9504.0,
          9496.0,
          9490.0,
          9487.0,
          9494.0,
          9486.0,
          9475.0,
          9481.0,
          9507.0,
          9498.0,
          9485.0,
          9512.0,
          9519.0,
          9497.0,
          9495.0,
          9516.0,
          9520.0,
          9513.0,
          9520.0,
          9512.0,
          9487.0,
          9437.0,
          9457.0,
          9438.0,
          9464.0,
          9462.0,
          9473.0,
          9487.0,
          9482.0,
          9483.0,
          9496.0,
          9498.0,
          9474.0,
          9485.0,
          9496.0,
          9477.0,
          9467.0,
          9474.0,
          9476.0,
          9476.0,
          9474.0,
          9479.0,
          9490.0,
          9480.0,
          9481.0,
          9506.0,
          9492.0,
          9465.0,
          9456.0,
          9480.0,
          9472.0,
          9476.0,
          9477.0,
          9482.0,
          9491.0,
          9498.0,
          9492.0,
          9494.0,
          9498.0,
          9484.0,
          9482.0,
          9477.0,
          9478.0,
          9478.0,
          9473.0,
          9487.0,
          9490.0,
          9469.0,
          9472.0,
          9467.0,
          9482.0,
          9477.0,
          9494.0,
          9490.0,
          9492.0,
          9499.0,
          9510.0,
          9487.0,
          9500.0,
          9487.0,
          9462.0,
          9484.0,
          9501.0,
          9493.0,
          9467.0,
          9488.0,
          9482.0,
          9464.0,
          9478.0,
          9495.0,
          9478.0,
          9485.0,
          9503.0,
          9500.0,
          9502.0,
          9513.0,
          9499.0,
          9464.0,
          9471.0,
          9497.0,
          9497.0,
          9463.0,
          9451.0,
          9451.0,
          9469.0,
          9490.0,
          9484.0,
          9472.0,
          9487.0,
          9489.0,
          9490.0,
          9483.0,
