{
  "aor": 0.0014078,
  "aqi": 0.006355004399999999,
  "bids_meta": {
    "ConversionSoftware": "dcm2niix",
    "ConversionSoftwareVersion": "v1.0.20170207",
    "EchoTime": 0.0302,
    "EffectiveEchoSpacing": 0.000640002,
    "FlipAngle": 90,
    "ImageType": [
      "ORIGINAL",
      "PRIMARY",
      "M",
      "MB",
      "ND",
      "MOSAIC"
    ],
    "MagneticFieldStrength": 3,
    "Manufacturer": "Siemens",
    "ManufacturersModelName": "Prisma",
    "PhaseEncodingDirection": "j-",
    "ProcedureStepDescription": "CAMRIS_CHOP",
    "ProtocolName": "BOLD_resting1",
    "RepetitionTime": 2,
    "SliceTiming": [
      0,
      0.0775,
      0.1575,
      0.2375,
      0.315,
      0.395,
      0.475,
      0.5525,
      0.6325,
      0.7125,
      0.79,
      0.87,
      0.95,
      1.0275,
      1.1075,
      1.1875,
      1.265,
      1.345,
      1.425,
      1.5025,
      1.5825,
      1.6625,
      1.74,
      1.82,
      1.9,
      0,
      0.0775,
      0.1575,
      0.2375,
      0.315,
      0.395,
      0.475,
      0.5525,
      0.6325,
      0.7125,
      0.79,
      0.87,
      0.95,
      1.0275,
      1.1075,
      1.1875,
      1.265,
      1.345,
      1.425,
      1.5025,
      1.5825,
      1.6625,
      1.74,
      1.82,
      1.9,
      0,
      0.0775,
      0.1575,
      0.2375,
      0.315,
      0.395,
      0.475,
      0.5525,
      0.6325,
      0.7125,
      0.79,
      0.87,
      0.95,
      1.0275,
      1.1075,
      1.1875,
      1.265,
      1.345,
      1.425,
      1.5025,
      1.5825,
      1.6625,
      1.74,
      1.82,
      1.9
    ],
    "TaskName": "piper",
    "dataset": "ds004228",
    "dcmmeta_affine": [
      [
        -2.0,
        0.0,
        0.0,
        99.63200378417969
      ],
      [
        0.0,
        2.0,
        0.0,
        -90.36799621582031
      ],
      [
        0.0,
        0.0,
        2.0,
        -36.46969985961914
      ],
      [
        0.0,
        0.0,
        0.0,
        1.0
      ]
    ],
    "dcmmeta_reorient_transform": [
      [
        0.0,
        -1.0,
        0.0,
        95.0
      ],
      [
        1.0,
        0.0,
        0.0,
        0.0
      ],
      [
        0.0,
        0.0,
        1.0,
        0.0
      ],
      [
        0.0,
        0.0,
        0.0,
        1.0
      ]
    ],
    "dcmmeta_shape": [
      96,
      96,
      75,
      150
    ],
    "dcmmeta_slice_dim": 2,
    "dcmmeta_version": 0.6,
    "global": {
      "const": {
        "AcquisitionMatrix": [
          96,
          0,
          0,
          96
        ],
        "AngioFlag": "N",
        "BitsAllocated": 16,
        "BitsStored": 16,
        "BodyPartExamined": "BRAIN",
        "CardiacNumberOfImages": 1,
        "Columns": 864,
        "EchoNumbers": 1,
        "EchoTime": 30.2,
        "EchoTrainLength": 84,
        "FlipAngle": 90.0,
        "HighBit": 15,
        "ImageOrientationPatient": [
          1.0,
          0.0,
          0.0,
          0.0,
          1.0,
          0.0
        ],
        "ImagePositionPatient": [
          -867.632,
          -867.632,
          -36.4697
        ],
        "ImageType": [
          "ORIGINAL",
          "PRIMARY",
          "M",
          "MB",
          "ND",
          "MOSAIC"
        ],
        "ImagedNucleus": "1H",
        "ImagingFrequency": 123.255,
        "InPlanePhaseEncodingDirection": "COL",
        "MRAcquisitionType": "2D",
        "MagneticFieldStrength": 3.0,
        "Manufacturer": "SIEMENS",
        "ManufacturerModelName": "Prisma",
        "Modality": "MR",
        "NominalInterval": 0,
        "NumberOfAverages": 1.0,
        "NumberOfFrames": 1,
        "NumberOfPhaseEncodingSteps": 84,
        "PercentPhaseFieldOfView": 100.0,
        "PercentSampling": 100.0,
        "PerformedProcedureStepStartTime": "135215.011000",
        "PhotometricInterpretation": "MONOCHROME2",
        "PixelBandwidth": 1860.0,
        "PixelRepresentation": 0,
        "PixelSpacing": [
          2.0,
          2.0
        ],
        "ProtocolName": "BOLD_resting1",
        "RepetitionTime": 2000.0,
        "Rows": 864,
        "SAR": 0.21137,
        "SamplesPerPixel": 1,
        "ScanOptions": [
          "PFP",
          "FS",
          "EXT"
        ],
        "ScanningSequence": "EP",
        "SequenceName": "epfid2d1_96",
        "SequenceVariant": [
          "SK",
          "SS"
        ],
        "SeriesDescription": "BOLD_resting1",
        "SeriesNumber": 19,
        "SeriesTime": "143443.607000",
        "SliceLocation": -36.4697,
        "SliceThickness": 2.0,
        "SmallestImagePixelValue": 0,
        "SoftwareVersions": "syngo MR E11",
        "SpacingBetweenSlices": 2.0,
        "SpecificCharacterSet": "ISO_IR 100",
        "StudyID": "1",
        "StudyTime": "135214.920000",
        "TransmitCoilName": "Body",
        "VariableFlipAngleFlag": "N",
        "WindowCenterWidthExplanation": "Algo1",
        "dBdt": 0.0
      },
      "slices": {}
    },
    "modality": "bold",
    "run_id": 1,
    "session_id": "01",
    "subject_id": "56",
    "task_id": "piper",
    "time": {
      "samples": {
        "AcquisitionNumber": [
          1,
          2,
          3,
          4,
          5,
          6,
          7,
          8,
          9,
          10,
          11,
          12,
          13,
          14,
          15,
          16,
          17,
          18,
          19,
          20,
          21,
          22,
          23,
          24,
          25,
          26,
          27,
          28,
          29,
          30,
          31,
          32,
          33,
          34,
          35,
          36,
          37,
          38,
          39,
          40,
          41,
          42,
          43,
          44,
          45,
          46,
          47,
          48,
          49,
          50,
          51,
          52,
          53,
          54,
          55,
          56,
          57,
          58,
          59,
          60,
          61,
          62,
          63,
          64,
          65,
          66,
          67,
          68,
          69,
          70,
          71,
          72,
          73,
          74,
          75,
          76,
          77,
          78,
          79,
          80,
          81,
          82,
          83,
          84,
          85,
          86,
          87,
          88,
          89,
          90,
          91,
          92,
          93,
          94,
          95,
          96,
          97,
          98,
          99,
          100,
          101,
          102,
          103,
          104,
          105,
          106,
          107,
          108,
          109,
          110,
          111,
          112,
          113,
          114,
          115,
          116,
          117,
          118,
          119,
          120,
          121,
          122,
          123,
          124,
          125,
          126,
          127,
          128,
          129,
          130,
          131,
          132,
          133,
          134,
          135,
          136,
          137,
          138,
          139,
          140,
          141,
          142,
          143,
          144,
          145,
          146,
          147,
          148,
          149,
          150
        ],
        "AcquisitionTime": [
          "143440.875000",
          "143442.875000",
          "143444.875000",
          "143446.875000",
          "143448.875000",
          "143450.875000",
          "143452.875000",
          "143454.875000",
          "143456.875000",
          "143458.875000",
          "143500.875000",
          "143502.875000",
          "143504.875000",
          "143506.875000",
          "143508.875000",
          "143510.875000",
          "143512.875000",
          "143514.875000",
          "143516.875000",
          "143518.875000",
          "143520.875000",
          "143522.875000",
          "143524.875000",
          "143526.875000",
          "143528.875000",
          "143530.875000",
          "143532.875000",
          "143534.875000",
          "143536.875000",
          "143538.875000",
          "143540.875000",
          "143542.875000",
          "143544.875000",
          "143546.875000",
          "143548.875000",
          "143550.875000",
          "143552.875000",
          "143554.875000",
          "143556.875000",
          "143558.875000",
          "143600.875000",
          "143602.875000",
          "143604.875000",
          "143606.875000",
          "143608.875000",
          "143610.875000",
          "143612.875000",
          "143614.875000",
          "143616.875000",
          "143618.875000",
          "143620.875000",
          "143622.875000",
          "143624.875000",
          "143626.875000",
          "143628.875000",
          "143630.875000",
          "143632.875000",
          "143634.875000",
          "143636.875000",
          "143638.875000",
          "143640.875000",
          "143642.875000",
          "143644.875000",
          "143646.875000",
          "143648.875000",
          "143650.875000",
          "143652.875000",
          "143654.875000",
          "143656.875000",
          "143658.875000",
          "143700.875000",
          "143702.875000",
          "143704.875000",
          "143706.875000",
          "143708.875000",
          "143710.875000",
          "143712.875000",
          "143714.875000",
          "143716.875000",
          "143718.875000",
          "143720.875000",
          "143722.875000",
          "143724.875000",
          "143726.875000",
          "143728.875000",
          "143730.875000",
          "143732.875000",
          "143734.875000",
          "143736.875000",
          "143738.875000",
          "143740.875000",
          "143742.875000",
          "143744.875000",
          "143746.875000",
          "143748.875000",
          "143750.875000",
          "143752.875000",
          "143754.875000",
          "143756.875000",
          "143758.875000",
          "143800.875000",
          "143802.875000",
          "143804.875000",
          "143806.875000",
          "143808.875000",
          "143810.875000",
          "143812.875000",
          "143814.875000",
          "143816.875000",
          "143818.875000",
          "143820.875000",
          "143822.875000",
          "143824.875000",
          "143826.875000",
          "143828.875000",
          "143830.875000",
          "143832.875000",
          "143834.875000",
          "143836.875000",
          "143838.875000",
          "143840.875000",
          "143842.875000",
          "143844.875000",
          "143846.875000",
          "143848.875000",
          "143850.875000",
          "143852.875000",
          "143854.875000",
          "143856.875000",
          "143858.875000",
          "143900.875000",
          "143902.875000",
          "143904.875000",
          "143906.875000",
          "143908.875000",
          "143910.875000",
          "143912.875000",
          "143914.875000",
          "143916.875000",
          "143918.875000",
          "143920.875000",
          "143922.875000",
          "143924.875000",
          "143926.875000",
          "143928.875000",
          "143930.875000",
          "143932.875000",
          "143934.875000",
          "143936.875000",
          "143938.875000"
        ],
        "ContentTime": [
          "143443.611000",
          "143445.106000",
          "143447.105000",
          "143449.105000",
          "143451.106000",
          "143453.106000",
          "143455.106000",
          "143457.106000",
          "143459.106000",
          "143501.106000",
          "143503.106000",
          "143505.105000",
          "143507.106000",
          "143509.106000",
          "143511.106000",
          "143513.106000",
          "143515.106000",
          "143517.106000",
          "143519.606000",
          "143521.105000",
          "143523.105000",
          "143525.106000",
          "143527.106000",
          "143529.106000",
          "143531.106000",
          "143533.606000",
          "143535.106000",
          "143537.106000",
          "143539.105000",
          "143541.105000",
          "143543.106000",
          "143545.106000",
          "143547.106000",
          "143549.106000",
          "143551.606000",
          "143553.106000",
          "143555.106000",
          "143557.105000",
          "143559.105000",
          "143601.106000",
          "143603.106000",
          "143605.106000",
          "143607.606000",
          "143609.106000",
          "143611.106000",
          "143613.106000",
          "143615.105000",
          "143617.106000",
          "143619.106000",
          "143621.106000",
          "143623.106000",
          "143625.106000",
          "143627.606000",
          "143629.106000",
          "143631.105000",
          "143633.105000",
          "143635.106000",
          "143637.106000",
          "143639.106000",
          "143641.106000",
          "143643.106000",
          "143645.106000",
          "143647.106000",
          "143649.605000",
          "143651.105000",
          "143653.106000",
          "143655.106000",
          "143657.106000",
          "143659.106000",
          "143701.106000",
          "143703.106000",
          "143705.106000",
          "143707.105000",
          "143709.606000",
          "143711.106000",
          "143713.106000",
          "143715.106000",
          "143717.106000",
          "143719.106000",
          "143721.106000",
          "143723.106000",
          "143725.105000",
          "143727.106000",
          "143729.106000",
          "143731.106000",
          "143733.106000",
          "143735.106000",
          "143737.106000",
          "143739.106000",
          "143741.105000",
          "143743.105000",
          "143745.106000",
          "143747.106000",
          "143749.106000",
          "143751.106000",
          "143753.106000",
          "143755.606000",
          "143757.106000",
          "143759.105000",
          "143801.105000",
          "143803.106000",
          "143805.106000",
          "143807.606000",
          "143809.106000",
          "143811.106000",
          "143813.106000",
          "143815.106000",
          "143817.105000",
          "143819.105000",
          "143821.106000",
          "143823.606000",
          "143825.106000",
          "143827.106000",
          "143829.106000",
          "143831.106000",
          "143833.106000",
          "143835.105000",
          "143837.106000",
          "143839.606000",
          "143841.106000",
          "143843.106000",
          "143845.106000",
          "143847.606000",
          "143849.106000",
          "143851.105000",
          "143853.105000",
          "143855.106000",
          "143857.106000",
          "143859.106000",
          "143901.106000",
          "143903.106000",
          "143905.106000",
          "143907.106000",
          "143909.105000",
          "143911.105000",
          "143913.106000",
          "143915.106000",
          "143917.106000",
          "143919.106000",
          "143921.106000",
          "143923.106000",
          "143925.106000",
          "143927.105000",
          "143929.105000",
          "143931.106000",
          "143933.106000",
          "143935.606000",
          "143937.606000",
          "143939.106000",
          "143941.106000"
        ],
        "InstanceCreationTime": [
          "143443.611000",
          "143445.106000",
          "143447.105000",
          "143449.105000",
          "143451.106000",
          "143453.106000",
          "143455.106000",
          "143457.106000",
          "143459.106000",
          "143501.106000",
          "143503.106000",
          "143505.105000",
          "143507.106000",
          "143509.106000",
          "143511.106000",
          "143513.106000",
          "143515.106000",
          "143517.106000",
          "143519.606000",
          "143521.105000",
          "143523.105000",
          "143525.106000",
          "143527.106000",
          "143529.106000",
          "143531.106000",
          "143533.606000",
          "143535.106000",
          "143537.106000",
          "143539.105000",
          "143541.105000",
          "143543.106000",
          "143545.106000",
          "143547.106000",
          "143549.106000",
          "143551.606000",
          "143553.106000",
          "143555.106000",
          "143557.105000",
          "143559.105000",
          "143601.106000",
          "143603.106000",
          "143605.106000",
          "143607.606000",
          "143609.106000",
          "143611.106000",
          "143613.106000",
          "143615.105000",
          "143617.106000",
          "143619.106000",
          "143621.106000",
          "143623.106000",
          "143625.106000",
          "143627.606000",
          "143629.106000",
          "143631.105000",
          "143633.105000",
          "143635.106000",
          "143637.106000",
          "143639.106000",
          "143641.106000",
          "143643.106000",
          "143645.106000",
          "143647.106000",
          "143649.605000",
          "143651.105000",
          "143653.106000",
          "143655.106000",
          "143657.106000",
          "143659.106000",
          "143701.106000",
          "143703.106000",
          "143705.106000",
          "143707.105000",
          "143709.606000",
          "143711.106000",
          "143713.106000",
          "143715.106000",
          "143717.106000",
          "143719.106000",
          "143721.106000",
          "143723.106000",
          "143725.105000",
          "143727.106000",
          "143729.106000",
          "143731.106000",
          "143733.106000",
          "143735.106000",
          "143737.106000",
          "143739.106000",
          "143741.105000",
          "143743.105000",
          "143745.106000",
          "143747.106000",
          "143749.106000",
          "143751.106000",
          "143753.106000",
          "143755.606000",
          "143757.106000",
          "143759.105000",
          "143801.105000",
          "143803.106000",
          "143805.106000",
          "143807.606000",
          "143809.106000",
          "143811.106000",
          "143813.106000",
          "143815.106000",
          "143817.105000",
          "143819.105000",
          "143821.106000",
          "143823.606000",
          "143825.106000",
          "143827.106000",
          "143829.106000",
          "143831.106000",
          "143833.106000",
          "143835.105000",
          "143837.106000",
          "143839.606000",
          "143841.106000",
          "143843.106000",
          "143845.106000",
          "143847.606000",
          "143849.106000",
          "143851.105000",
          "143853.105000",
          "143855.106000",
          "143857.106000",
          "143859.106000",
          "143901.106000",
          "143903.106000",
          "143905.106000",
          "143907.106000",
          "143909.105000",
          "143911.105000",
          "143913.106000",
          "143915.106000",
          "143917.106000",
          "143919.106000",
          "143921.106000",
          "143923.106000",
          "143925.106000",
          "143927.105000",
          "143929.105000",
          "143931.106000",
          "143933.106000",
          "143935.606000",
          "143937.606000",
          "143939.106000",
          "143941.106000"
        ],
        "InstanceNumber": [
          1,
          2,
          3,
          4,
          5,
          6,
          7,
          8,
          9,
          10,
          11,
          12,
          13,
          14,
          15,
          16,
          17,
          18,
          19,
          20,
          21,
          22,
          23,
          24,
          25,
          26,
          27,
          28,
          29,
          30,
          31,
          32,
          33,
          34,
          35,
          36,
          37,
          38,
          39,
          40,
          41,
          42,
          43,
          44,
          45,
          46,
          47,
          48,
          49,
          50,
          51,
          52,
          53,
          54,
          55,
          56,
          57,
          58,
          59,
          60,
          61,
          62,
          63,
          64,
          65,
          66,
          67,
          68,
          69,
          70,
          71,
          72,
          73,
          74,
          75,
          76,
          77,
          78,
          79,
          80,
          81,
          82,
          83,
          84,
          85,
          86,
          87,
          88,
          89,
          90,
          91,
          92,
          93,
          94,
          95,
          96,
          97,
          98,
          99,
          100,
          101,
          102,
          103,
          104,
          105,
          106,
          107,
          108,
          109,
          110,
          111,
          112,
          113,
          114,
          115,
          116,
          117,
          118,
          119,
          120,
          121,
          122,
          123,
          124,
          125,
          126,
          127,
          128,
          129,
          130,
          131,
          132,
          133,
          134,
          135,
          136,
          137,
          138,
          139,
          140,
          141,
          142,
          143,
          144,
          145,
          146,
          147,
          148,
          149,
          150
        ],
        "LargestImagePixelValue": [
          30985,
          30331,
          30465,
          30033,
          30321,
          30415,
          30300,
          29903,
          30032,
          30539,
          30095,
          29604,
          29886,
          29689,
          30213,
          30241,
          29936,
          30081,
          30096,
          29809,
          29624,
          29772,
          29863,
          30210,
          30250,
          30085,
          29874,
          29890,
          29731,
          29635,
          29973,
          30027,
          29737,
          29643,
          29435,
          29849,
          29782,
          29894,
          29839,
          29844,
          29748,
          29595,
          29633,
          29918,
          29762,
          29553,
          29731,
          29583,
          29447,
          29625,
          29256,
          29385,
          30787,
          29483,
          29439,
          29698,
          30032,
          29896,
          29426,
          29115,
          28958,
          29046,
          28981,
          28858,
          29596,
          29284,
          29433,
          29861,
          29448,
          29459,
          29977,
          29739,
          29463,
          29758,
          29627,
          28814,
          28453,
          29234,
          29368,
          28951,
          28660,
          29626,
          29475,
          29335,
          29051,
          30215,
          29676,
          29766,
          29340,
          29259,
          29193,
          29684,
          30102,
          29425,
          29099,
          29221,
          29245,
          29060,
          28698,
          29008,
          29451,
          30130,
          29887,
          30115,
          29006,
          28606,
          28602,
          28520,
          28264,
          27982,
          27831,
          27830,
          27789,
          27879,
          27760,
          28079,
          28592,
          28287,
          28271,
          28330,
          28200,
          30741,
          28903,
          27808,
          27597,
          27975,
          27924,
          28800,
          27978,
          27857,
          27894,
          28029,
          28074,
          28038,
          27995,
          27754,
          28468,
          28172,
          28166,
          28611,
          28595,
          29353,
          28444,
          28434,
          28769,
          29047,
          29008,
          29207,
          28440,
          29062
        ],
        "TriggerTime": [
          11722.5,
          13722.5,
          15722.5,
          17722.5,
          19722.5,
          21722.5,
          23722.5,
          25722.5,
          27722.5,
          29722.5,
          31722.5,
          33722.5,
          35722.5,
          37722.5,
          39722.5,
          41722.5,
          43722.5,
          45722.5,
          47722.5,
          49722.5,
          51722.5,
          53722.5,
          55722.5,
          57722.5,
          59722.5,
          61722.5,
          63722.5,
          65722.5,
          67722.5,
          69722.5,
          71722.5,
          73722.5,
          75722.5,
          77722.5,
          79722.5,
          81722.5,
          83722.5,
          85722.5,
          87722.5,
          89722.5,
          91722.5,
          93722.5,
          95722.5,
          97722.5,
          99722.5,
          101723.0,
          103723.0,
          105723.0,
          107723.0,
          109723.0,
          111723.0,
          113723.0,
          115723.0,
          117723.0,
          119723.0,
          121723.0,
          123723.0,
          125723.0,
          127723.0,
          129723.0,
          131723.0,
          133723.0,
          135723.0,
          137723.0,
          139723.0,
          141723.0,
          143723.0,
          145723.0,
          147723.0,
          149723.0,
          151723.0,
          153723.0,
          155723.0,
          157723.0,
          159723.0,
          161723.0,
          163723.0,
          165723.0,
          167723.0,
          169723.0,
          171723.0,
          173723.0,
          175723.0,
          177723.0,
          179723.0,
          181723.0,
          183723.0,
          185723.0,
          187723.0,
          189723.0,
          191723.0,
          193723.0,
          195723.0,
          197723.0,
          199723.0,
          201723.0,
          203723.0,
          205723.0,
          207723.0,
          209723.0,
          211723.0,
          213723.0,
          215723.0,
          217723.0,
          219723.0,
          221723.0,
          223723.0,
          225723.0,
          227723.0,
          229723.0,
          231723.0,
          233723.0,
          235723.0,
          237723.0,
          239723.0,
          241723.0,
          243723.0,
          245723.0,
          247723.0,
          249723.0,
          251723.0,
          253723.0,
          255723.0,
          257723.0,
          259723.0,
          261723.0,
          263723.0,
          265723.0,
          267723.0,
          269723.0,
          271723.0,
          273723.0,
          275723.0,
          277723.0,
          279723.0,
          281723.0,
          283723.0,
          285723.0,
          287723.0,
          289723.0,
          291723.0,
          293723.0,
          295723.0,
          297723.0,
          299723.0,
          301723.0,
          303723.0,
          305723.0,
          307723.0,
          309723.0
        ],
        "WindowCenter": [
          8373.0,
          8347.0,
          8334.0,
          8327.0,
          8334.0,
          8352.0,
          8355.0,
          8355.0,
          8356.0,
          8382.0,
          8371.0,
          8348.0,
          8328.0,
          8319.0,
          8333.0,
          8344.0,
          8355.0,
          8372.0,
          8366.0,
          8365.0,
          8359.0,
          8365.0,
          8357.0,
          8366.0,
          8362.0,
          8355.0,
          8346.0,
          8328.0,
          8335.0,
          8339.0,
          8343.0,
          8345.0,
          8354.0,
          8355.0,
          8358.0,
          8365.0,
          8355.0,
          8348.0,
          8339.0,
          8338.0,
          8337.0,
          8320.0,
          8327.0,
          8335.0,
          8347.0,
          8348.0,
          8364.0,
          8355.0,
          8338.0,
          8327.0,
          8312.0,
          8311.0,
          8356.0,
          8320.0,
          8309.0,
          8316.0,
          8326.0,
          8326.0,
          8322.0,
          8311.0,
          8285.0,
          8295.0,
          8313.0,
          8306.0,
          8319.0,
          8303.0,
          8302.0,
          8319.0,
          8331.0,
          8320.0,
          8324.0,
          8306.0,
          8279.0,
          8278.0,
          8286.0,
          8284.0,
          8293.0,
          8300.0,
          8297.0,
          8273.0,
          8292.0,
          8316.0,
          8308.0,
          8300.0,
          8292.0,
          8306.0,
          8306.0,
          8307.0,
          8325.0,
          8320.0,
          8302.0,
          8297.0,
          8303.0,
          8307.0,
          8303.0,
          8292.0,
          8292.0,
          8299.0,
          8293.0,
          8290.0,
          8290.0,
          8314.0,
          8307.0,
          8314.0,
          8300.0,
          8277.0,
          8291.0,
          8293.0,
          8285.0,
          8268.0,
          8268.0,
          8261.0,
          8257.0,
          8251.0,
          8258.0,
          8260.0,
          8257.0,
          8251.0,
          8245.0,
          8237.0,
          8227.0,
          8326.0,
          8273.0,
          8260.0,
          8261.0,
          8276.0,
          8270.0,
          8293.0,
          8271.0,
          8261.0,
          8251.0,
          8267.0,
          8257.0,
          8256.0,
          8245.0,
          8247.0,
          8271.0,
          8264.0,
          8256.0,
          8263.0,
          8264.0,
          8286.0,
          8271.0,
          8262.0,
          8250.0,
