{
  "aor": 0.0015668000000000001,
  "aqi": 0.0045243194,
  "bids_meta": {
    "ConversionSoftware": "dcm2niix",
    "ConversionSoftwareVersion": "v1.0.20170207",
    "EchoTime": 0.0302,
    "EffectiveEchoSpacing": 0.000640002,
    "FlipAngle": 90,
    "ImageType": [
      "ORIGINAL",
      "PRIMARY",
      "M",
      "MB",
      "ND",
      "MOSAIC"
    ],
    "MagneticFieldStrength": 3,
    "Manufacturer": "Siemens",
    "ManufacturersModelName": "Prisma",
    "PhaseEncodingDirection": "j-",
    "ProcedureStepDescription": "CAMRIS_CHOP",
    "ProtocolName": "BOLD_resting1",
    "RepetitionTime": 2,
    "SliceTiming": [
      0,
      0.08,
      0.1575,
      0.2375,
      0.3175,
      0.395,
      0.475,
      0.555,
      0.6325,
      0.7125,
      0.7925,
      0.87,
      0.95,
      1.03,
      1.1075,
      1.1875,
      1.2675,
      1.345,
      1.425,
      1.505,
      1.5825,
      1.6625,
      1.7425,
      1.8225,
      1.9,
      0,
      0.08,
      0.1575,
      0.2375,
      0.3175,
      0.395,
      0.475,
      0.555,
      0.6325,
      0.7125,
      0.7925,
      0.87,
      0.95,
      1.03,
      1.1075,
      1.1875,
      1.2675,
      1.345,
      1.425,
      1.505,
      1.5825,
      1.6625,
      1.7425,
      1.8225,
      1.9,
      0,
      0.08,
      0.1575,
      0.2375,
      0.3175,
      0.395,
      0.475,
      0.555,
      0.6325,
      0.7125,
      0.7925,
      0.87,
      0.95,
      1.03,
      1.1075,
      1.1875,
      1.2675,
      1.345,
      1.425,
      1.505,
      1.5825,
      1.6625,
      1.7425,
      1.8225,
      1.9
    ],
    "TaskName": "piper",
    "dataset": "ds004228",
    "dcmmeta_affine": [
      [
        -2.0,
        0.0,
        0.0,
        99.01200103759766
      ],
      [
        0.0,
        2.0,
        0.0,
        -76.52999877929688
      ],
      [
        0.0,
        0.0,
        2.0,
        -49.90359878540039
      ],
      [
        0.0,
        0.0,
        0.0,
        1.0
      ]
    ],
    "dcmmeta_reorient_transform": [
      [
        0.0,
        -1.0,
        0.0,
        95.0
      ],
      [
        1.0,
        0.0,
        0.0,
        0.0
      ],
      [
        0.0,
        0.0,
        1.0,
        0.0
      ],
      [
        0.0,
        0.0,
        0.0,
        1.0
      ]
    ],
    "dcmmeta_shape": [
      96,
      96,
      75,
      150
    ],
    "dcmmeta_slice_dim": 2,
    "dcmmeta_version": 0.6,
    "global": {
      "const": {
        "AcquisitionMatrix": [
          96,
          0,
          0,
          96
        ],
        "AngioFlag": "N",
        "BitsAllocated": 16,
        "BitsStored": 16,
        "BodyPartExamined": "BRAIN",
        "CardiacNumberOfImages": 1,
        "Columns": 864,
        "EchoNumbers": 1,
        "EchoTime": 30.2,
        "EchoTrainLength": 84,
        "FlipAngle": 90.0,
        "HighBit": 15,
        "ImageOrientationPatient": [
          1.0,
          0.0,
          0.0,
          0.0,
          1.0,
          0.0
        ],
        "ImagePositionPatient": [
          -867.012,
          -881.47,
          -49.9036
        ],
        "ImageType": [
          "ORIGINAL",
          "PRIMARY",
          "M",
          "MB",
          "ND",
          "MOSAIC"
        ],
        "ImagedNucleus": "1H",
        "ImagingFrequency": 123.255,
        "InPlanePhaseEncodingDirection": "COL",
        "MRAcquisitionType": "2D",
        "MagneticFieldStrength": 3.0,
        "Manufacturer": "SIEMENS",
        "ManufacturerModelName": "Prisma",
        "Modality": "MR",
        "NominalInterval": 0,
        "NumberOfAverages": 1.0,
        "NumberOfFrames": 1,
        "NumberOfPhaseEncodingSteps": 84,
        "PercentPhaseFieldOfView": 100.0,
        "PercentSampling": 100.0,
        "PerformedProcedureStepStartTime": "131346.346000",
        "PhotometricInterpretation": "MONOCHROME2",
        "PixelBandwidth": 1860.0,
        "PixelRepresentation": 0,
        "PixelSpacing": [
          2.0,
          2.0
        ],
        "ProtocolName": "BOLD_resting1",
        "RepetitionTime": 2000.0,
        "Rows": 864,
        "SAR": 0.0914504,
        "SamplesPerPixel": 1,
        "ScanOptions": [
          "PFP",
          "FS",
          "EXT"
        ],
        "ScanningSequence": "EP",
        "SequenceName": "epfid2d1_96",
        "SequenceVariant": [
          "SK",
          "SS"
        ],
        "SeriesDescription": "BOLD_resting1",
        "SeriesNumber": 14,
        "SeriesTime": "134743.599000",
        "SliceLocation": -49.9036,
        "SliceThickness": 2.0,
        "SmallestImagePixelValue": 0,
        "SoftwareVersions": "syngo MR E11",
        "SpacingBetweenSlices": 2.0,
        "SpecificCharacterSet": "ISO_IR 100",
        "StudyID": "1",
        "StudyTime": "131346.223000",
        "TransmitCoilName": "Body",
        "VariableFlipAngleFlag": "N",
        "WindowCenterWidthExplanation": "Algo1",
        "dBdt": 0.0
      },
      "slices": {}
    },
    "modality": "bold",
    "run_id": 1,
    "session_id": "01",
    "subject_id": "42",
    "task_id": "piper",
    "time": {
      "samples": {
        "AcquisitionNumber": [
          1,
          2,
          3,
          4,
          5,
          6,
          7,
          8,
          9,
          10,
          11,
          12,
          13,
          14,
          15,
          16,
          17,
          18,
          19,
          20,
          21,
          22,
          23,
          24,
          25,
          26,
          27,
          28,
          29,
          30,
          31,
          32,
          33,
          34,
          35,
          36,
          37,
          38,
          39,
          40,
          41,
          42,
          43,
          44,
          45,
          46,
          47,
          48,
          49,
          50,
          51,
          52,
          53,
          54,
          55,
          56,
          57,
          58,
          59,
          60,
          61,
          62,
          63,
          64,
          65,
          66,
          67,
          68,
          69,
          70,
          71,
          72,
          73,
          74,
          75,
          76,
          77,
          78,
          79,
          80,
          81,
          82,
          83,
          84,
          85,
          86,
          87,
          88,
          89,
          90,
          91,
          92,
          93,
          94,
          95,
          96,
          97,
          98,
          99,
          100,
          101,
          102,
          103,
          104,
          105,
          106,
          107,
          108,
          109,
          110,
          111,
          112,
          113,
          114,
          115,
          116,
          117,
          118,
          119,
          120,
          121,
          122,
          123,
          124,
          125,
          126,
          127,
          128,
          129,
          130,
          131,
          132,
          133,
          134,
          135,
          136,
          137,
          138,
          139,
          140,
          141,
          142,
          143,
          144,
          145,
          146,
          147,
          148,
          149,
          150
        ],
        "AcquisitionTime": [
          "134741.135000",
          "134743.135000",
          "134745.135000",
          "134747.135000",
          "134749.135000",
          "134751.135000",
          "134753.135000",
          "134755.135000",
          "134757.135000",
          "134759.135000",
          "134801.135000",
          "134803.135000",
          "134805.135000",
          "134807.135000",
          "134809.135000",
          "134811.135000",
          "134813.135000",
          "134815.135000",
          "134817.135000",
          "134819.135000",
          "134821.135000",
          "134823.135000",
          "134825.135000",
          "134827.135000",
          "134829.135000",
          "134831.135000",
          "134833.135000",
          "134835.135000",
          "134837.135000",
          "134839.135000",
          "134841.135000",
          "134843.135000",
          "134845.135000",
          "134847.135000",
          "134849.135000",
          "134851.135000",
          "134853.135000",
          "134855.135000",
          "134857.135000",
          "134859.135000",
          "134901.135000",
          "134903.135000",
          "134905.135000",
          "134907.135000",
          "134909.135000",
          "134911.135000",
          "134913.135000",
          "134915.135000",
          "134917.135000",
          "134919.135000",
          "134921.135000",
          "134923.135000",
          "134925.135000",
          "134927.135000",
          "134929.135000",
          "134931.135000",
          "134933.135000",
          "134935.135000",
          "134937.135000",
          "134939.135000",
          "134941.135000",
          "134943.135000",
          "134945.135000",
          "134947.135000",
          "134949.135000",
          "134951.135000",
          "134953.135000",
          "134955.135000",
          "134957.135000",
          "134959.135000",
          "135001.135000",
          "135003.135000",
          "135005.135000",
          "135007.135000",
          "135009.135000",
          "135011.135000",
          "135013.135000",
          "135015.135000",
          "135017.135000",
          "135019.135000",
          "135021.135000",
          "135023.135000",
          "135025.135000",
          "135027.135000",
          "135029.135000",
          "135031.135000",
          "135033.135000",
          "135035.135000",
          "135037.135000",
          "135039.135000",
          "135041.135000",
          "135043.135000",
          "135045.135000",
          "135047.135000",
          "135049.135000",
          "135051.135000",
          "135053.135000",
          "135055.135000",
          "135057.135000",
          "135059.135000",
          "135101.135000",
          "135103.135000",
          "135105.135000",
          "135107.135000",
          "135109.135000",
          "135111.135000",
          "135113.135000",
          "135115.135000",
          "135117.135000",
          "135119.135000",
          "135121.135000",
          "135123.135000",
          "135125.135000",
          "135127.135000",
          "135129.135000",
          "135131.135000",
          "135133.135000",
          "135135.135000",
          "135137.135000",
          "135139.135000",
          "135141.135000",
          "135143.135000",
          "135145.135000",
          "135147.135000",
          "135149.135000",
          "135151.135000",
          "135153.135000",
          "135155.135000",
          "135157.135000",
          "135159.135000",
          "135201.135000",
          "135203.135000",
          "135205.135000",
          "135207.135000",
          "135209.135000",
          "135211.135000",
          "135213.135000",
          "135215.135000",
          "135217.135000",
          "135219.135000",
          "135221.135000",
          "135223.135000",
          "135225.135000",
          "135227.135000",
          "135229.135000",
          "135231.135000",
          "135233.135000",
          "135235.135000",
          "135237.135000",
          "135239.135000"
        ],
        "ContentTime": [
          "134743.603000",
          "134745.597000",
          "134747.597000",
          "134749.597000",
          "134751.597000",
          "134753.598000",
          "134755.598000",
          "134757.598000",
          "134759.598000",
          "134801.597000",
          "134803.597000",
          "134805.597000",
          "134807.597000",
          "134809.597000",
          "134811.598000",
          "134813.598000",
          "134815.598000",
          "134817.598000",
          "134819.597000",
          "134821.597000",
          "134823.597000",
          "134825.597000",
          "134827.597000",
          "134829.598000",
          "134831.598000",
          "134833.598000",
          "134835.598000",
          "134837.597000",
          "134839.597000",
          "134841.597000",
          "134843.597000",
          "134845.597000",
          "134847.598000",
          "134849.598000",
          "134851.598000",
          "134853.598000",
          "134855.597000",
          "134857.597000",
          "134859.597000",
          "134901.597000",
          "134903.598000",
          "134905.598000",
          "134907.598000",
          "134909.598000",
          "134911.597000",
          "134913.597000",
          "134915.597000",
          "134917.597000",
          "134919.597000",
          "134921.598000",
          "134923.598000",
          "134925.598000",
          "134927.598000",
          "134929.605000",
          "134931.597000",
          "134933.597000",
          "134935.597000",
          "134937.597000",
          "134939.598000",
          "134941.598000",
          "134943.598000",
          "134945.598000",
          "134947.597000",
          "134949.597000",
          "134951.597000",
          "134953.597000",
          "134955.597000",
          "134957.598000",
          "134959.598000",
          "135001.598000",
          "135003.598000",
          "135005.597000",
          "135007.597000",
          "135009.597000",
          "135011.597000",
          "135013.598000",
          "135015.598000",
          "135017.598000",
          "135019.598000",
          "135021.597000",
          "135023.597000",
          "135025.597000",
          "135027.597000",
          "135029.597000",
          "135031.598000",
          "135033.598000",
          "135035.598000",
          "135037.598000",
          "135039.597000",
          "135041.597000",
          "135043.597000",
          "135045.597000",
          "135047.597000",
          "135049.598000",
          "135051.598000",
          "135053.598000",
          "135055.598000",
          "135057.597000",
          "135059.597000",
          "135101.597000",
          "135103.597000",
          "135105.598000",
          "135107.598000",
          "135109.598000",
          "135111.598000",
          "135113.598000",
          "135115.597000",
          "135117.597000",
          "135119.597000",
          "135121.597000",
          "135123.598000",
          "135125.598000",
          "135127.598000",
          "135129.598000",
          "135131.597000",
          "135133.597000",
          "135135.597000",
          "135137.597000",
          "135139.597000",
          "135141.598000",
          "135143.598000",
          "135145.598000",
          "135147.598000",
          "135149.597000",
          "135151.597000",
          "135153.597000",
          "135155.597000",
          "135157.597000",
          "135159.598000",
          "135201.598000",
          "135203.598000",
          "135205.598000",
          "135207.597000",
          "135209.597000",
          "135211.597000",
          "135213.597000",
          "135215.598000",
          "135217.598000",
          "135219.598000",
          "135221.598000",
          "135223.598000",
          "135225.597000",
          "135227.597000",
          "135229.597000",
          "135231.597000",
          "135233.598000",
          "135235.598000",
          "135237.598000",
          "135239.598000",
          "135241.226000"
        ],
        "InstanceCreationTime": [
          "134743.603000",
          "134745.597000",
          "134747.597000",
          "134749.597000",
          "134751.597000",
          "134753.598000",
          "134755.598000",
          "134757.598000",
          "134759.598000",
          "134801.597000",
          "134803.597000",
          "134805.597000",
          "134807.597000",
          "134809.597000",
          "134811.598000",
          "134813.598000",
          "134815.598000",
          "134817.598000",
          "134819.597000",
          "134821.597000",
          "134823.597000",
          "134825.597000",
          "134827.597000",
          "134829.598000",
          "134831.598000",
          "134833.598000",
          "134835.598000",
          "134837.597000",
          "134839.597000",
          "134841.597000",
          "134843.597000",
          "134845.597000",
          "134847.598000",
          "134849.598000",
          "134851.598000",
          "134853.598000",
          "134855.597000",
          "134857.597000",
          "134859.597000",
          "134901.597000",
          "134903.598000",
          "134905.598000",
          "134907.598000",
          "134909.598000",
          "134911.597000",
          "134913.597000",
          "134915.597000",
          "134917.597000",
          "134919.597000",
          "134921.598000",
          "134923.598000",
          "134925.598000",
          "134927.598000",
          "134929.605000",
          "134931.597000",
          "134933.597000",
          "134935.597000",
          "134937.597000",
          "134939.598000",
          "134941.598000",
          "134943.598000",
          "134945.598000",
          "134947.597000",
          "134949.597000",
          "134951.597000",
          "134953.597000",
          "134955.597000",
          "134957.598000",
          "134959.598000",
          "135001.598000",
          "135003.598000",
          "135005.597000",
          "135007.597000",
          "135009.597000",
          "135011.597000",
          "135013.598000",
          "135015.598000",
          "135017.598000",
          "135019.598000",
          "135021.597000",
          "135023.597000",
          "135025.597000",
          "135027.597000",
          "135029.597000",
          "135031.598000",
          "135033.598000",
          "135035.598000",
          "135037.598000",
          "135039.597000",
          "135041.597000",
          "135043.597000",
          "135045.597000",
          "135047.597000",
          "135049.598000",
          "135051.598000",
          "135053.598000",
          "135055.598000",
          "135057.597000",
          "135059.597000",
          "135101.597000",
          "135103.597000",
          "135105.598000",
          "135107.598000",
          "135109.598000",
          "135111.598000",
          "135113.598000",
          "135115.597000",
          "135117.597000",
          "135119.597000",
          "135121.597000",
          "135123.598000",
          "135125.598000",
          "135127.598000",
          "135129.598000",
          "135131.597000",
          "135133.597000",
          "135135.597000",
          "135137.597000",
          "135139.597000",
          "135141.598000",
          "135143.598000",
          "135145.598000",
          "135147.598000",
          "135149.597000",
          "135151.597000",
          "135153.597000",
          "135155.597000",
          "135157.597000",
          "135159.598000",
          "135201.598000",
          "135203.598000",
          "135205.598000",
          "135207.597000",
          "135209.597000",
          "135211.597000",
          "135213.597000",
          "135215.598000",
          "135217.598000",
          "135219.598000",
          "135221.598000",
          "135223.598000",
          "135225.597000",
          "135227.597000",
          "135229.597000",
          "135231.597000",
          "135233.598000",
          "135235.598000",
          "135237.598000",
          "135239.598000",
          "135241.226000"
        ],
        "InstanceNumber": [
          1,
          2,
          3,
          4,
          5,
          6,
          7,
          8,
          9,
          10,
          11,
          12,
          13,
          14,
          15,
          16,
          17,
          18,
          19,
          20,
          21,
          22,
          23,
          24,
          25,
          26,
          27,
          28,
          29,
          30,
          31,
          32,
          33,
          34,
          35,
          36,
          37,
          38,
          39,
          40,
          41,
          42,
          43,
          44,
          45,
          46,
          47,
          48,
          49,
          50,
          51,
          52,
          53,
          54,
          55,
          56,
          57,
          58,
          59,
          60,
          61,
          62,
          63,
          64,
          65,
          66,
          67,
          68,
          69,
          70,
          71,
          72,
          73,
          74,
          75,
          76,
          77,
          78,
          79,
          80,
          81,
          82,
          83,
          84,
          85,
          86,
          87,
          88,
          89,
          90,
          91,
          92,
          93,
          94,
          95,
          96,
          97,
          98,
          99,
          100,
          101,
          102,
          103,
          104,
          105,
          106,
          107,
          108,
          109,
          110,
          111,
          112,
          113,
          114,
          115,
          116,
          117,
          118,
          119,
          120,
          121,
          122,
          123,
          124,
          125,
          126,
          127,
          128,
          129,
          130,
          131,
          132,
          133,
          134,
          135,
          136,
          137,
          138,
          139,
          140,
          141,
          142,
          143,
          144,
          145,
          146,
          147,
          148,
          149,
          150
        ],
        "LargestImagePixelValue": [
          25253,
          24600,
          25002,
          24575,
          25001,
          25121,
          25185,
          25083,
          24768,
          24497,
          24895,
          24560,
          24572,
          24522,
          24792,
          24676,
          24926,
          24958,
          24789,
          24260,
          24862,
          24737,
          24702,
          24549,
          24963,
          24905,
          24982,
          25075,
          24810,
          24990,
          24810,
          24637,
          24988,
          24857,
          25099,
          25074,
          25222,
          25063,
          24764,
          25008,
          25183,
          25214,
          24904,
          24910,
          25190,
          25205,
          25485,
          25169,
          25127,
          24938,
          25153,
          25302,
          25046,
          25165,
          25282,
          25686,
          25127,
          25110,
          25383,
          25199,
          25302,
          25067,
          25643,
          25321,
          25374,
          25526,
          25023,
          24908,
          25507,
          25380,
          24944,
          24938,
          25094,
          25224,
          25272,
          25350,
          25065,
          25207,
          25557,
          25324,
          24909,
          25544,
          25326,
          25074,
          25048,
          25472,
          25592,
          25634,
          25185,
          25007,
          25229,
          25357,
          25764,
          25398,
          25020,
          25164,
          25303,
          25314,
          25592,
          25131,
          25433,
          25843,
          25516,
          25751,
          25440,
          25266,
          25713,
          24888,
          25165,
          25565,
          25349,
          26088,
          25210,
          25170,
          25781,
          25738,
          25381,
          25618,
          26154,
          25686,
          25472,
          25980,
          26035,
          25611,
          25292,
          25759,
          25901,
          26026,
          25702,
          25670,
          25367,
          25974,
          26405,
          25453,
          25681,
          25964,
          26034,
          25918,
          25903,
          25452,
          25686,
          25391,
          25680,
          25506,
          25829,
          26207,
          26090,
          25746,
          25686,
          25550
        ],
        "TriggerTime": [
          11650.0,
          13650.0,
          15650.0,
          17650.0,
          19650.0,
          21650.0,
          23650.0,
          25650.0,
          27650.0,
          29650.0,
          31650.0,
          33650.0,
          35650.0,
          37650.0,
          39650.0,
          41650.0,
          43650.0,
          45650.0,
          47650.0,
          49650.0,
          51650.0,
          53650.0,
          55650.0,
          57650.0,
          59650.0,
          61650.0,
          63650.0,
          65650.0,
          67650.0,
          69650.0,
          71650.0,
          73650.0,
          75650.0,
          77650.0,
          79650.0,
          81650.0,
          83650.0,
          85650.0,
          87650.0,
          89650.0,
          91650.0,
          93650.0,
          95650.0,
          97650.0,
          99650.0,
          101650.0,
          103650.0,
          105650.0,
          107650.0,
          109650.0,
          111650.0,
          113650.0,
          115650.0,
          117650.0,
          119650.0,
          121650.0,
          123650.0,
          125650.0,
          127650.0,
          129650.0,
          131650.0,
          133650.0,
          135650.0,
          137650.0,
          139650.0,
          141650.0,
          143650.0,
          145650.0,
          147650.0,
          149650.0,
          151650.0,
          153650.0,
          155650.0,
          157650.0,
          159650.0,
          161650.0,
          163650.0,
          165650.0,
          167650.0,
          169650.0,
          171650.0,
          173650.0,
          175650.0,
          177650.0,
          179650.0,
          181650.0,
          183650.0,
          185650.0,
          187650.0,
          189650.0,
          191650.0,
          193650.0,
          195650.0,
          197650.0,
          199650.0,
          201650.0,
          203650.0,
          205650.0,
          207650.0,
          209650.0,
          211650.0,
          213650.0,
          215650.0,
          217650.0,
          219650.0,
          221650.0,
          223650.0,
          225650.0,
          227650.0,
          229650.0,
          231650.0,
          233650.0,
          235650.0,
          237650.0,
          239650.0,
          241650.0,
          243650.0,
          245650.0,
          247650.0,
          249650.0,
          251650.0,
          253650.0,
          255650.0,
          257650.0,
          259650.0,
          261650.0,
          263650.0,
          265650.0,
          267650.0,
          269650.0,
          271650.0,
          273650.0,
          275650.0,
          277650.0,
          279650.0,
          281650.0,
          283650.0,
          285650.0,
          287650.0,
          289650.0,
          291650.0,
          293650.0,
          295650.0,
          297650.0,
          299650.0,
          301650.0,
          303650.0,
          305650.0,
          307650.0,
          309650.0
        ],
        "WindowCenter": [
          8928.0,
          8883.0,
          8926.0,
          8895.0,
          8888.0,
          8898.0,
          8901.0,
          8884.0,
          8864.0,
          8862.0,
          8921.0,
          8869.0,
          8878.0,
          8846.0,
          8862.0,
          8865.0,
          8868.0,
          8892.0,
          8856.0,
          8851.0,
          8880.0,
          8868.0,
          8856.0,
          8905.0,
          8903.0,
          8891.0,
          8904.0,
          8896.0,
          8891.0,
          8906.0,
          8917.0,
          8912.0,
          8933.0,
          8924.0,
          8915.0,
          8915.0,
          8915.0,
          8913.0,
          8907.0,
          8922.0,
          8899.0,
          8942.0,
          8939.0,
          8918.0,
          8910.0,
          8906.0,
          8937.0,
          8917.0,
          8922.0,
          8924.0,
          8917.0,
          8939.0,
          8916.0,
          8915.0,
          8901.0,
          8928.0,
          8915.0,
          8922.0,
          8912.0,
          8900.0,
          8910.0,
          8896.0,
          8897.0,
          8902.0,
          8901.0,
          8928.0,
          8908.0,
          8904.0,
          8925.0,
          8913.0,
          8905.0,
          8914.0,
          8911.0,
          8888.0,
          8897.0,
          8939.0,
          8883.0,
          8875.0,
          8926.0,
          8920.0,
          8892.0,
          8910.0,
          8878.0,
          8860.0,
          8909.0,
          8923.0,
          8902.0,
          8934.0,
          8900.0,
          8931.0,
          8898.0,
          8875.0,
          8910.0,
          8900.0,
          8875.0,
          8883.0,
          8894.0,
          8922.0,
          8897.0,
          8898.0,
          8907.0,
          8928.0,
          8905.0,
          8926.0,
          8896.0,
          8906.0,
          8887.0,
          8862.0,
          8889.0,
          8913.0,
          8886.0,
          8927.0,
          8892.0,
          8891.0,
          8919.0,
          8914.0,
          8903.0,
          8905.0,
          8916.0,
          8894.0,
          8882.0,
          8927.0,
          8920.0,
          8908.0,
          8894.0,
          8925.0,
          8908.0,
          8918.0,
          8907.0,
          8896.0,
          8868.0,
          8919.0,
          8942.0,
          8903.0,
          8896.0,
          8909.0,
          8930.0,
          8890.0,
          8918.0,
          8903.0,
          8922.0,
          8868.0,
          8906.0,
          8898.0,
          8914.0,
