{
  "aor": 0.0014427333333333332,
  "aqi": 0.004734488,
  "bids_meta": {
    "ConversionSoftware": "dcm2niix",
    "ConversionSoftwareVersion": "v1.0.20170207",
    "EchoTime": 0.0302,
    "EffectiveEchoSpacing": 0.000640002,
    "FlipAngle": 90,
    "ImageType": [
      "ORIGINAL",
      "PRIMARY",
      "M",
      "MB",
      "ND",
      "MOSAIC"
    ],
    "MagneticFieldStrength": 3,
    "Manufacturer": "Siemens",
    "ManufacturersModelName": "Prisma",
    "PhaseEncodingDirection": "j-",
    "ProcedureStepDescription": "CAMRIS_Oathes",
    "ProtocolName": "BOLD_resting1",
    "RepetitionTime": 2,
    "SliceTiming": [
      0,
      0.08,
      0.1575,
      0.2375,
      0.3175,
      0.395,
      0.475,
      0.555,
      0.6325,
      0.7125,
      0.7925,
      0.8725,
      0.95,
      1.03,
      1.11,
      1.1875,
      1.2675,
      1.3475,
      1.425,
      1.505,
      1.585,
      1.6625,
      1.7425,
      1.8225,
      1.9,
      0,
      0.08,
      0.1575,
      0.2375,
      0.3175,
      0.395,
      0.475,
      0.555,
      0.6325,
      0.7125,
      0.7925,
      0.8725,
      0.95,
      1.03,
      1.11,
      1.1875,
      1.2675,
      1.3475,
      1.425,
      1.505,
      1.585,
      1.6625,
      1.7425,
      1.8225,
      1.9,
      0,
      0.08,
      0.1575,
      0.2375,
      0.3175,
      0.395,
      0.475,
      0.555,
      0.6325,
      0.7125,
      0.7925,
      0.8725,
      0.95,
      1.03,
      1.11,
      1.1875,
      1.2675,
      1.3475,
      1.425,
      1.505,
      1.585,
      1.6625,
      1.7425,
      1.8225,
      1.9
    ],
    "TaskName": "piper",
    "dataset": "ds004228",
    "dcmmeta_affine": [
      [
        -2.0,
        0.0,
        0.0,
        91.60399627685547
      ],
      [
        0.0,
        2.0,
        0.0,
        -73.11799621582031
      ],
      [
        0.0,
        0.0,
        2.0,
        -48.722198486328125
      ],
      [
        0.0,
        0.0,
        0.0,
        1.0
      ]
    ],
    "dcmmeta_reorient_transform": [
      [
        0.0,
        -1.0,
        0.0,
        95.0
      ],
      [
        1.0,
        0.0,
        0.0,
        0.0
      ],
      [
        0.0,
        0.0,
        1.0,
        0.0
      ],
      [
        0.0,
        0.0,
        0.0,
        1.0
      ]
    ],
    "dcmmeta_shape": [
      96,
      96,
      75,
      150
    ],
    "dcmmeta_slice_dim": 2,
    "dcmmeta_version": 0.6,
    "global": {
      "const": {
        "AccessionNumber": "446896",
        "AcquisitionMatrix": [
          96,
          0,
          0,
          96
        ],
        "AngioFlag": "N",
        "BitsAllocated": 16,
        "BitsStored": 16,
        "BodyPartExamined": "BRAIN",
        "CardiacNumberOfImages": 1,
        "Columns": 864,
        "EchoNumbers": 1,
        "EchoTime": 30.2,
        "EchoTrainLength": 84,
        "FlipAngle": 90.0,
        "HighBit": 15,
        "ImageOrientationPatient": [
          1.0,
          0.0,
          0.0,
          0.0,
          1.0,
          0.0
        ],
        "ImagePositionPatient": [
          -859.604,
          -884.882,
          -48.7222
        ],
        "ImageType": [
          "ORIGINAL",
          "PRIMARY",
          "M",
          "MB",
          "ND",
          "MOSAIC"
        ],
        "ImagedNucleus": "1H",
        "ImagingFrequency": 123.255,
        "InPlanePhaseEncodingDirection": "COL",
        "MRAcquisitionType": "2D",
        "MagneticFieldStrength": 3.0,
        "Manufacturer": "SIEMENS",
        "ManufacturerModelName": "Prisma",
        "Modality": "MR",
        "NominalInterval": 0,
        "NumberOfAverages": 1.0,
        "NumberOfFrames": 1,
        "NumberOfPhaseEncodingSteps": 84,
        "PercentPhaseFieldOfView": 100.0,
        "PercentSampling": 100.0,
        "PerformedProcedureStepStartTime": "145949.770000",
        "PhotometricInterpretation": "MONOCHROME2",
        "PixelBandwidth": 1860.0,
        "PixelRepresentation": 0,
        "PixelSpacing": [
          2.0,
          2.0
        ],
        "ProtocolName": "BOLD_resting1",
        "RepetitionTime": 2000.0,
        "Rows": 864,
        "SAR": 0.151773,
        "SamplesPerPixel": 1,
        "ScanOptions": [
          "PFP",
          "FS",
          "EXT"
        ],
        "ScanningSequence": "EP",
        "SequenceName": "epfid2d1_96",
        "SequenceVariant": [
          "SK",
          "SS"
        ],
        "SeriesDescription": "BOLD_resting1",
        "SeriesNumber": 19,
        "SeriesTime": "154058.583000",
        "SliceLocation": -48.7222,
        "SliceThickness": 2.0,
        "SmallestImagePixelValue": 0,
        "SoftwareVersions": "syngo MR E11",
        "SpacingBetweenSlices": 2.0,
        "SpecificCharacterSet": "ISO_IR 100",
        "StudyID": "1",
        "StudyTime": "145949.646000",
        "TransmitCoilName": "Body",
        "VariableFlipAngleFlag": "N",
        "WindowCenterWidthExplanation": "Algo1",
        "dBdt": 0.0
      },
      "slices": {}
    },
    "modality": "bold",
    "run_id": 1,
    "session_id": "01",
    "subject_id": "69",
    "task_id": "piper",
    "time": {
      "samples": {
        "AcquisitionNumber": [
          1,
          2,
          3,
          4,
          5,
          6,
          7,
          8,
          9,
          10,
          11,
          12,
          13,
          14,
          15,
          16,
          17,
          18,
          19,
          20,
          21,
          22,
          23,
          24,
          25,
          26,
          27,
          28,
          29,
          30,
          31,
          32,
          33,
          34,
          35,
          36,
          37,
          38,
          39,
          40,
          41,
          42,
          43,
          44,
          45,
          46,
          47,
          48,
          49,
          50,
          51,
          52,
          53,
          54,
          55,
          56,
          57,
          58,
          59,
          60,
          61,
          62,
          63,
          64,
          65,
          66,
          67,
          68,
          69,
          70,
          71,
          72,
          73,
          74,
          75,
          76,
          77,
          78,
          79,
          80,
          81,
          82,
          83,
          84,
          85,
          86,
          87,
          88,
          89,
          90,
          91,
          92,
          93,
          94,
          95,
          96,
          97,
          98,
          99,
          100,
          101,
          102,
          103,
          104,
          105,
          106,
          107,
          108,
          109,
          110,
          111,
          112,
          113,
          114,
          115,
          116,
          117,
          118,
          119,
          120,
          121,
          122,
          123,
          124,
          125,
          126,
          127,
          128,
          129,
          130,
          131,
          132,
          133,
          134,
          135,
          136,
          137,
          138,
          139,
          140,
          141,
          142,
          143,
          144,
          145,
          146,
          147,
          148,
          149,
          150
        ],
        "AcquisitionTime": [
          "154055.657500",
          "154057.657500",
          "154059.657500",
          "154101.657500",
          "154103.657500",
          "154105.657500",
          "154107.657500",
          "154109.657500",
          "154111.657500",
          "154113.657500",
          "154115.657500",
          "154117.657500",
          "154119.657500",
          "154121.657500",
          "154123.657500",
          "154125.657500",
          "154127.657500",
          "154129.657500",
          "154131.657500",
          "154133.657500",
          "154135.657500",
          "154137.657500",
          "154139.657500",
          "154141.657500",
          "154143.657500",
          "154145.657500",
          "154147.657500",
          "154149.657500",
          "154151.657500",
          "154153.657500",
          "154155.657500",
          "154157.657500",
          "154159.657500",
          "154201.657500",
          "154203.657500",
          "154205.657500",
          "154207.657500",
          "154209.657500",
          "154211.657500",
          "154213.657500",
          "154215.657500",
          "154217.657500",
          "154219.657500",
          "154221.657500",
          "154223.657500",
          "154225.657500",
          "154227.657500",
          "154229.657500",
          "154231.657500",
          "154233.657500",
          "154235.657500",
          "154237.657500",
          "154239.657500",
          "154241.657500",
          "154243.657500",
          "154245.657500",
          "154247.657500",
          "154249.657500",
          "154251.657500",
          "154253.657500",
          "154255.657500",
          "154257.657500",
          "154259.657500",
          "154301.657500",
          "154303.657500",
          "154305.657500",
          "154307.657500",
          "154309.657500",
          "154311.657500",
          "154313.657500",
          "154315.657500",
          "154317.657500",
          "154319.657500",
          "154321.657500",
          "154323.657500",
          "154325.657500",
          "154327.657500",
          "154329.657500",
          "154331.657500",
          "154333.657500",
          "154335.657500",
          "154337.657500",
          "154339.657500",
          "154341.657500",
          "154343.657500",
          "154345.657500",
          "154347.657500",
          "154349.657500",
          "154351.657500",
          "154353.657500",
          "154355.657500",
          "154357.657500",
          "154359.657500",
          "154401.657500",
          "154403.657500",
          "154405.657500",
          "154407.657500",
          "154409.657500",
          "154411.657500",
          "154413.657500",
          "154415.657500",
          "154417.657500",
          "154419.657500",
          "154421.657500",
          "154423.657500",
          "154425.657500",
          "154427.657500",
          "154429.657500",
          "154431.657500",
          "154433.657500",
          "154435.657500",
          "154437.657500",
          "154439.657500",
          "154441.657500",
          "154443.657500",
          "154445.657500",
          "154447.657500",
          "154449.657500",
          "154451.657500",
          "154453.657500",
          "154455.657500",
          "154457.657500",
          "154459.657500",
          "154501.657500",
          "154503.657500",
          "154505.657500",
          "154507.657500",
          "154509.657500",
          "154511.657500",
          "154513.657500",
          "154515.657500",
          "154517.657500",
          "154519.657500",
          "154521.657500",
          "154523.657500",
          "154525.657500",
          "154527.657500",
          "154529.657500",
          "154531.657500",
          "154533.657500",
          "154535.657500",
          "154537.657500",
          "154539.657500",
          "154541.657500",
          "154543.657500",
          "154545.657500",
          "154547.657500",
          "154549.657500",
          "154551.657500",
          "154553.657500"
        ],
        "ContentTime": [
          "154058.587000",
          "154100.582000",
          "154102.581000",
          "154104.581000",
          "154106.581000",
          "154108.582000",
          "154110.582000",
          "154112.582000",
          "154114.582000",
          "154116.582000",
          "154118.582000",
          "154120.581000",
          "154122.581000",
          "154124.581000",
          "154126.582000",
          "154128.582000",
          "154130.582000",
          "154132.582000",
          "154134.582000",
          "154136.582000",
          "154138.581000",
          "154140.581000",
          "154142.581000",
          "154144.582000",
          "154146.582000",
          "154148.582000",
          "154150.582000",
          "154152.582000",
          "154154.581000",
          "154156.581000",
          "154158.581000",
          "154200.582000",
          "154202.582000",
          "154204.582000",
          "154206.582000",
          "154208.582000",
          "154210.582000",
          "154212.581000",
          "154214.581000",
          "154216.581000",
          "154218.582000",
          "154220.582000",
          "154222.582000",
          "154224.582000",
          "154226.582000",
          "154228.582000",
          "154230.581000",
          "154232.581000",
          "154234.581000",
          "154236.582000",
          "154238.582000",
          "154240.582000",
          "154242.582000",
          "154244.582000",
          "154246.582000",
          "154248.581000",
          "154250.581000",
          "154252.581000",
          "154254.582000",
          "154256.582000",
          "154258.582000",
          "154300.582000",
          "154302.582000",
          "154304.581000",
          "154306.581000",
          "154308.581000",
          "154310.582000",
          "154312.582000",
          "154314.582000",
          "154316.582000",
          "154318.582000",
          "154320.582000",
          "154322.581000",
          "154324.581000",
          "154326.581000",
          "154328.582000",
          "154330.582000",
          "154332.582000",
          "154334.582000",
          "154336.582000",
          "154338.582000",
          "154340.581000",
          "154342.581000",
          "154344.581000",
          "154346.582000",
          "154348.582000",
          "154350.582000",
          "154352.582000",
          "154354.582000",
          "154356.582000",
          "154358.581000",
          "154400.581000",
          "154402.581000",
          "154404.582000",
          "154406.582000",
          "154408.582000",
          "154410.582000",
          "154412.582000",
          "154414.581000",
          "154416.581000",
          "154418.581000",
          "154420.582000",
          "154422.582000",
          "154424.582000",
          "154426.582000",
          "154428.582000",
          "154430.582000",
          "154432.581000",
          "154434.581000",
          "154436.581000",
          "154438.582000",
          "154440.582000",
          "154442.582000",
          "154444.582000",
          "154446.582000",
          "154448.582000",
          "154450.581000",
          "154452.581000",
          "154454.581000",
          "154456.582000",
          "154458.582000",
          "154500.582000",
          "154502.582000",
          "154504.582000",
          "154506.582000",
          "154508.581000",
          "154510.581000",
          "154512.581000",
          "154514.582000",
          "154516.582000",
          "154518.582000",
          "154520.582000",
          "154522.582000",
          "154524.581000",
          "154526.581000",
          "154528.581000",
          "154530.582000",
          "154532.582000",
          "154534.582000",
          "154536.582000",
          "154538.582000",
          "154540.582000",
          "154542.581000",
          "154544.581000",
          "154546.581000",
          "154548.582000",
          "154550.582000",
          "154552.582000",
          "154554.582000",
          "154556.324000"
        ],
        "InstanceCreationTime": [
          "154058.587000",
          "154100.582000",
          "154102.581000",
          "154104.581000",
          "154106.581000",
          "154108.582000",
          "154110.582000",
          "154112.582000",
          "154114.582000",
          "154116.582000",
          "154118.582000",
          "154120.581000",
          "154122.581000",
          "154124.581000",
          "154126.582000",
          "154128.582000",
          "154130.582000",
          "154132.582000",
          "154134.582000",
          "154136.582000",
          "154138.581000",
          "154140.581000",
          "154142.581000",
          "154144.582000",
          "154146.582000",
          "154148.582000",
          "154150.582000",
          "154152.582000",
          "154154.581000",
          "154156.581000",
          "154158.581000",
          "154200.582000",
          "154202.582000",
          "154204.582000",
          "154206.582000",
          "154208.582000",
          "154210.582000",
          "154212.581000",
          "154214.581000",
          "154216.581000",
          "154218.582000",
          "154220.582000",
          "154222.582000",
          "154224.582000",
          "154226.582000",
          "154228.582000",
          "154230.581000",
          "154232.581000",
          "154234.581000",
          "154236.582000",
          "154238.582000",
          "154240.582000",
          "154242.582000",
          "154244.582000",
          "154246.582000",
          "154248.581000",
          "154250.581000",
          "154252.581000",
          "154254.582000",
          "154256.582000",
          "154258.582000",
          "154300.582000",
          "154302.582000",
          "154304.581000",
          "154306.581000",
          "154308.581000",
          "154310.582000",
          "154312.582000",
          "154314.582000",
          "154316.582000",
          "154318.582000",
          "154320.582000",
          "154322.581000",
          "154324.581000",
          "154326.581000",
          "154328.582000",
          "154330.582000",
          "154332.582000",
          "154334.582000",
          "154336.582000",
          "154338.582000",
          "154340.581000",
          "154342.581000",
          "154344.581000",
          "154346.582000",
          "154348.582000",
          "154350.582000",
          "154352.582000",
          "154354.582000",
          "154356.582000",
          "154358.581000",
          "154400.581000",
          "154402.581000",
          "154404.582000",
          "154406.582000",
          "154408.582000",
          "154410.582000",
          "154412.582000",
          "154414.581000",
          "154416.581000",
          "154418.581000",
          "154420.582000",
          "154422.582000",
          "154424.582000",
          "154426.582000",
          "154428.582000",
          "154430.582000",
          "154432.581000",
          "154434.581000",
          "154436.581000",
          "154438.582000",
          "154440.582000",
          "154442.582000",
          "154444.582000",
          "154446.582000",
          "154448.582000",
          "154450.581000",
          "154452.581000",
          "154454.581000",
          "154456.582000",
          "154458.582000",
          "154500.582000",
          "154502.582000",
          "154504.582000",
          "154506.582000",
          "154508.581000",
          "154510.581000",
          "154512.581000",
          "154514.582000",
          "154516.582000",
          "154518.582000",
          "154520.582000",
          "154522.582000",
          "154524.581000",
          "154526.581000",
          "154528.581000",
          "154530.582000",
          "154532.582000",
          "154534.582000",
          "154536.582000",
          "154538.582000",
          "154540.582000",
          "154542.581000",
          "154544.581000",
          "154546.581000",
          "154548.582000",
          "154550.582000",
          "154552.582000",
          "154554.582000",
          "154556.324000"
        ],
        "InstanceNumber": [
          1,
          2,
          3,
          4,
          5,
          6,
          7,
          8,
          9,
          10,
          11,
          12,
          13,
          14,
          15,
          16,
          17,
          18,
          19,
          20,
          21,
          22,
          23,
          24,
          25,
          26,
          27,
          28,
          29,
          30,
          31,
          32,
          33,
          34,
          35,
          36,
          37,
          38,
          39,
          40,
          41,
          42,
          43,
          44,
          45,
          46,
          47,
          48,
          49,
          50,
          51,
          52,
          53,
          54,
          55,
          56,
          57,
          58,
          59,
          60,
          61,
          62,
          63,
          64,
          65,
          66,
          67,
          68,
          69,
          70,
          71,
          72,
          73,
          74,
          75,
          76,
          77,
          78,
          79,
          80,
          81,
          82,
          83,
          84,
          85,
          86,
          87,
          88,
          89,
          90,
          91,
          92,
          93,
          94,
          95,
          96,
          97,
          98,
          99,
          100,
          101,
          102,
          103,
          104,
          105,
          106,
          107,
          108,
          109,
          110,
          111,
          112,
          113,
          114,
          115,
          116,
          117,
          118,
          119,
          120,
          121,
          122,
          123,
          124,
          125,
          126,
          127,
          128,
          129,
          130,
          131,
          132,
          133,
          134,
          135,
          136,
          137,
          138,
          139,
          140,
          141,
          142,
          143,
          144,
          145,
          146,
          147,
          148,
          149,
          150
        ],
        "LargestImagePixelValue": [
          29299,
          28188,
          27861,
          27373,
          28230,
          28109,
          27129,
          26910,
          27358,
          28756,
          29010,
          28806,
          29470,
          28405,
          27916,
          28443,
          28397,
          28601,
          28439,
          28741,
          28225,
          28539,
          27934,
          28546,
          28173,
          27849,
          28852,
          28959,
          28197,
          28065,
          29036,
          28219,
          28647,
          27850,
          28459,
          28798,
          28749,
          28805,
          29381,
          29114,
          28755,
          28346,
          28062,
          27767,
          27329,
          27321,
          27772,
          27278,
          27623,
          27629,
          27578,
          27960,
          27752,
          28374,
          28216,
          28194,
          28048,
          27922,
          27294,
          26872,
          26750,
          27573,
          27360,
          27306,
          26955,
          27058,
          26900,
          27221,
          27794,
          27906,
          27801,
          27836,
          27678,
          27548,
          27322,
          27391,
          27704,
          27667,
          27079,
          27189,
          27706,
          27573,
          27440,
          27914,
          27572,
          27137,
          26982,
          26919,
          26904,
          27128,
          26245,
          26456,
          26934,
          26860,
          26542,
          27389,
          26527,
          26318,
          26940,
          27606,
          27898,
          27597,
          26970,
          26731,
          27403,
          27934,
          27814,
          26961,
          27396,
          27781,
          28383,
          28968,
          28967,
          28376,
          27890,
          28592,
          28262,
          28505,
          28003,
          28050,
          28426,
          28841,
          28574,
          28198,
          28327,
          28150,
          28236,
          27933,
          27949,
          27732,
          27250,
          27011,
          27960,
          28486,
          28397,
          27741,
          27416,
          27168,
          26934,
          27065,
          27156,
          26883,
          26640,
          26768,
          27552,
          27938,
          27360,
          26449,
          26664,
          27492
        ],
        "TriggerTime": [
          11690.0,
          13690.0,
          15690.0,
          17690.0,
          19690.0,
          21690.0,
          23690.0,
          25690.0,
          27690.0,
          29690.0,
          31690.0,
          33690.0,
          35690.0,
          37690.0,
          39690.0,
          41690.0,
          43690.0,
          45690.0,
          47690.0,
          49690.0,
          51690.0,
          53690.0,
          55690.0,
          57690.0,
          59690.0,
          61690.0,
          63690.0,
          65690.0,
          67690.0,
          69690.0,
          71690.0,
          73690.0,
          75690.0,
          77690.0,
          79690.0,
          81690.0,
          83690.0,
          85690.0,
          87690.0,
          89690.0,
          91690.0,
          93690.0,
          95690.0,
          97690.0,
          99690.0,
          101690.0,
          103690.0,
          105690.0,
          107690.0,
          109690.0,
          111690.0,
          113690.0,
          115690.0,
          117690.0,
          119690.0,
          121690.0,
          123690.0,
          125690.0,
          127690.0,
          129690.0,
          131690.0,
          133690.0,
          135690.0,
          137690.0,
          139690.0,
          141690.0,
          143690.0,
          145690.0,
          147690.0,
          149690.0,
          151690.0,
          153690.0,
          155690.0,
          157690.0,
          159690.0,
          161690.0,
          163690.0,
          165690.0,
          167690.0,
          169690.0,
          171690.0,
          173690.0,
          175690.0,
          177690.0,
          179690.0,
          181690.0,
          183690.0,
          185690.0,
          187690.0,
          189690.0,
          191690.0,
          193690.0,
          195690.0,
          197690.0,
          199690.0,
          201690.0,
          203690.0,
          205690.0,
          207690.0,
          209690.0,
          211690.0,
          213690.0,
          215690.0,
          217690.0,
          219690.0,
          221690.0,
          223690.0,
          225690.0,
          227690.0,
          229690.0,
          231690.0,
          233690.0,
          235690.0,
          237690.0,
          239690.0,
          241690.0,
          243690.0,
          245690.0,
          247690.0,
          249690.0,
          251690.0,
          253690.0,
          255690.0,
          257690.0,
          259690.0,
          261690.0,
          263690.0,
          265690.0,
          267690.0,
          269690.0,
          271690.0,
          273690.0,
          275690.0,
          277690.0,
          279690.0,
          281690.0,
          283690.0,
          285690.0,
          287690.0,
          289690.0,
          291690.0,
          293690.0,
          295690.0,
          297690.0,
          299690.0,
          301690.0,
          303690.0,
          305690.0,
          307690.0,
          309690.0
        ],
        "WindowCenter": [
          8380.0,
          8353.0,
          8355.0,
          8358.0,
          8367.0,
          8375.0,
          8372.0,
          8383.0,
          8383.0,
          8391.0,
          8397.0,
          8393.0,
          8389.0,
          8365.0,
          8356.0,
          8372.0,
          8380.0,
          8381.0,
          8390.0,
          8395.0,
          8368.0,
          8365.0,
          8358.0,
          8372.0,
          8363.0,
          8366.0,
          8382.0,
          8371.0,
          8365.0,
          8368.0,
          8396.0,
          8379.0,
          8393.0,
          8369.0,
          8385.0,
          8383.0,
          8366.0,
          8373.0,
          8379.0,
          8370.0,
          8380.0,
          8371.0,
          8365.0,
          8366.0,
          8370.0,
          8364.0,
          8370.0,
          8370.0,
          8367.0,
          8361.0,
          8359.0,
          8376.0,
          8393.0,
          8383.0,
          8367.0,
          8365.0,
          8366.0,
          8359.0,
          8351.0,
          8346.0,
          8356.0,
          8369.0,
          8350.0,
          8359.0,
          8362.0,
          8370.0,
          8362.0,
          8370.0,
          8376.0,
          8368.0,
          8368.0,
          8369.0,
          8371.0,
          8369.0,
          8361.0,
          8370.0,
          8380.0,
          8362.0,
          8360.0,
          8381.0,
          8377.0,
          8360.0,
          8358.0,
          8375.0,
          8379.0,
          8372.0,
          8365.0,
          8364.0,
          8372.0,
          8364.0,
          8346.0,
          8344.0,
          8353.0,
          8344.0,
          8338.0,
          8368.0,
          8337.0,
          8326.0,
          8353.0,
          8379.0,
          8379.0,
          8369.0,
          8362.0,
          8355.0,
          8388.0,
          8391.0,
          8387.0,
          8355.0,
          8371.0,
          8389.0,
          8404.0,
          8392.0,
          8381.0,
          8374.0,
          8374.0,
          8372.0,
          8366.0,
          8373.0,
          8367.0,
          8385.0,
          8395.0,
          8403.0,
          8385.0,
          8386.0,
          8386.0,
          8387.0,
          8389.0,
          8379.0,
          8380.0,
          8380.0,
          8364.0,
          8355.0,
          8378.0,
          8385.0,
          8366.0,
          8350.0,
          8350.0,
          8350.0,
          8354.0,
          8362.0,
          8354.0,
          8354.0,
          8347.0,
