{
  "aor": 0.0019210666666666665,
  "aqi": 0.004176972266666667,
  "bids_meta": {
    "ConversionSoftware": "dcm2niix",
    "ConversionSoftwareVersion": "v1.0.20170207",
    "EchoTime": 0.0302,
    "EffectiveEchoSpacing": 0.000640002,
    "FlipAngle": 90,
    "ImageType": [
      "ORIGINAL",
      "PRIMARY",
      "M",
      "MB",
      "ND",
      "MOSAIC"
    ],
    "MagneticFieldStrength": 3,
    "Manufacturer": "Siemens",
    "ManufacturersModelName": "Prisma",
    "PhaseEncodingDirection": "j-",
    "ProcedureStepDescription": "CAMRIS_CHOP",
    "ProtocolName": "BOLD_resting1",
    "RepetitionTime": 2,
    "SliceTiming": [
      0,
      0.08,
      0.16,
      0.2375,
      0.3175,
      0.3975,
      0.475,
      0.555,
      0.635,
      0.715,
      0.7925,
      0.8725,
      0.9525,
      1.03,
      1.11,
      1.19,
      1.2675,
      1.3475,
      1.4275,
      1.505,
      1.585,
      1.665,
      1.7425,
      1.8225,
      1.9025,
      0,
      0.08,
      0.16,
      0.2375,
      0.3175,
      0.3975,
      0.475,
      0.555,
      0.635,
      0.715,
      0.7925,
      0.8725,
      0.9525,
      1.03,
      1.11,
      1.19,
      1.2675,
      1.3475,
      1.4275,
      1.505,
      1.585,
      1.665,
      1.7425,
      1.8225,
      1.9025,
      0,
      0.08,
      0.16,
      0.2375,
      0.3175,
      0.3975,
      0.475,
      0.555,
      0.635,
      0.715,
      0.7925,
      0.8725,
      0.9525,
      1.03,
      1.11,
      1.19,
      1.2675,
      1.3475,
      1.4275,
      1.505,
      1.585,
      1.665,
      1.7425,
      1.8225,
      1.9025
    ],
    "TaskName": "piper",
    "dataset": "ds004228",
    "dcmmeta_affine": [
      [
        -2.0,
        0.0,
        0.0,
        96.0
      ],
      [
        0.0,
        2.0,
        0.0,
        -89.76300048828125
      ],
      [
        0.0,
        0.0,
        2.0,
        -44.94430160522461
      ],
      [
        0.0,
        0.0,
        0.0,
        1.0
      ]
    ],
    "dcmmeta_reorient_transform": [
      [
        0.0,
        -1.0,
        0.0,
        95.0
      ],
      [
        1.0,
        0.0,
        0.0,
        0.0
      ],
      [
        0.0,
        0.0,
        1.0,
        0.0
      ],
      [
        0.0,
        0.0,
        0.0,
        1.0
      ]
    ],
    "dcmmeta_shape": [
      96,
      96,
      75,
      150
    ],
    "dcmmeta_slice_dim": 2,
    "dcmmeta_version": 0.6,
    "global": {
      "const": {
        "AcquisitionMatrix": [
          96,
          0,
          0,
          96
        ],
        "AngioFlag": "N",
        "BitsAllocated": 16,
        "BitsStored": 16,
        "BodyPartExamined": "BRAIN",
        "CardiacNumberOfImages": 1,
        "Columns": 864,
        "EchoNumbers": 1,
        "EchoTime": 30.2,
        "EchoTrainLength": 84,
        "FlipAngle": 90.0,
        "HighBit": 15,
        "ImageOrientationPatient": [
          1.0,
          0.0,
          0.0,
          0.0,
          1.0,
          0.0
        ],
        "ImagePositionPatient": [
          -864.0,
          -868.237,
          -44.9443
        ],
        "ImageType": [
          "ORIGINAL",
          "PRIMARY",
          "M",
          "MB",
          "ND",
          "MOSAIC"
        ],
        "ImagedNucleus": "1H",
        "ImagingFrequency": 123.263,
        "InPlanePhaseEncodingDirection": "COL",
        "MRAcquisitionType": "2D",
        "MagneticFieldStrength": 3.0,
        "Manufacturer": "SIEMENS",
        "ManufacturerModelName": "Prisma",
        "Modality": "MR",
        "NominalInterval": 0,
        "NumberOfAverages": 1.0,
        "NumberOfFrames": 1,
        "NumberOfPhaseEncodingSteps": 84,
        "PercentPhaseFieldOfView": 100.0,
        "PercentSampling": 100.0,
        "PerformedProcedureStepStartTime": "140221.316000",
        "PhotometricInterpretation": "MONOCHROME2",
        "PixelBandwidth": 1860.0,
        "PixelRepresentation": 0,
        "PixelSpacing": [
          2.0,
          2.0
        ],
        "ProtocolName": "BOLD_resting1",
        "RepetitionTime": 2000.0,
        "Rows": 864,
        "SAR": 0.110554,
        "SamplesPerPixel": 1,
        "ScanOptions": [
          "PFP",
          "FS",
          "EXT"
        ],
        "ScanningSequence": "EP",
        "SequenceName": "epfid2d1_96",
        "SequenceVariant": [
          "SK",
          "SS"
        ],
        "SeriesDescription": "BOLD_resting1",
        "SeriesNumber": 19,
        "SeriesTime": "144439.594000",
        "SliceLocation": -44.9443,
        "SliceThickness": 2.0,
        "SmallestImagePixelValue": 0,
        "SoftwareVersions": "syngo MR E11",
        "SpacingBetweenSlices": 2.0,
        "SpecificCharacterSet": "ISO_IR 100",
        "StudyID": "1",
        "StudyTime": "140221.250000",
        "TransmitCoilName": "Body",
        "VariableFlipAngleFlag": "N",
        "WindowCenterWidthExplanation": "Algo1",
        "dBdt": 0.0
      },
      "slices": {}
    },
    "modality": "bold",
    "run_id": 1,
    "session_id": "01",
    "subject_id": "38",
    "task_id": "piper",
    "time": {
      "samples": {
        "AcquisitionNumber": [
          1,
          2,
          3,
          4,
          5,
          6,
          7,
          8,
          9,
          10,
          11,
          12,
          13,
          14,
          15,
          16,
          17,
          18,
          19,
          20,
          21,
          22,
          23,
          24,
          25,
          26,
          27,
          28,
          29,
          30,
          31,
          32,
          33,
          34,
          35,
          36,
          37,
          38,
          39,
          40,
          41,
          42,
          43,
          44,
          45,
          46,
          47,
          48,
          49,
          50,
          51,
          52,
          53,
          54,
          55,
          56,
          57,
          58,
          59,
          60,
          61,
          62,
          63,
          64,
          65,
          66,
          67,
          68,
          69,
          70,
          71,
          72,
          73,
          74,
          75,
          76,
          77,
          78,
          79,
          80,
          81,
          82,
          83,
          84,
          85,
          86,
          87,
          88,
          89,
          90,
          91,
          92,
          93,
          94,
          95,
          96,
          97,
          98,
          99,
          100,
          101,
          102,
          103,
          104,
          105,
          106,
          107,
          108,
          109,
          110,
          111,
          112,
          113,
          114,
          115,
          116,
          117,
          118,
          119,
          120,
          121,
          122,
          123,
          124,
          125,
          126,
          127,
          128,
          129,
          130,
          131,
          132,
          133,
          134,
          135,
          136,
          137,
          138,
          139,
          140,
          141,
          142,
          143,
          144,
          145,
          146,
          147,
          148,
          149,
          150
        ],
        "AcquisitionTime": [
          "144436.380000",
          "144438.380000",
          "144440.380000",
          "144442.380000",
          "144444.380000",
          "144446.380000",
          "144448.380000",
          "144450.380000",
          "144452.380000",
          "144454.380000",
          "144456.380000",
          "144458.380000",
          "144500.380000",
          "144502.380000",
          "144504.380000",
          "144506.380000",
          "144508.380000",
          "144510.380000",
          "144512.380000",
          "144514.380000",
          "144516.380000",
          "144518.380000",
          "144520.380000",
          "144522.380000",
          "144524.380000",
          "144526.380000",
          "144528.380000",
          "144530.380000",
          "144532.380000",
          "144534.380000",
          "144536.380000",
          "144538.380000",
          "144540.380000",
          "144542.380000",
          "144544.380000",
          "144546.380000",
          "144548.380000",
          "144550.380000",
          "144552.380000",
          "144554.380000",
          "144556.380000",
          "144558.380000",
          "144600.380000",
          "144602.380000",
          "144604.380000",
          "144606.380000",
          "144608.380000",
          "144610.380000",
          "144612.380000",
          "144614.380000",
          "144616.380000",
          "144618.380000",
          "144620.380000",
          "144622.380000",
          "144624.380000",
          "144626.380000",
          "144628.380000",
          "144630.380000",
          "144632.380000",
          "144634.380000",
          "144636.380000",
          "144638.380000",
          "144640.380000",
          "144642.380000",
          "144644.380000",
          "144646.380000",
          "144648.380000",
          "144650.380000",
          "144652.380000",
          "144654.380000",
          "144656.380000",
          "144658.380000",
          "144700.380000",
          "144702.380000",
          "144704.380000",
          "144706.380000",
          "144708.380000",
          "144710.380000",
          "144712.380000",
          "144714.380000",
          "144716.380000",
          "144718.380000",
          "144720.380000",
          "144722.380000",
          "144724.380000",
          "144726.380000",
          "144728.380000",
          "144730.380000",
          "144732.380000",
          "144734.380000",
          "144736.380000",
          "144738.380000",
          "144740.380000",
          "144742.380000",
          "144744.380000",
          "144746.380000",
          "144748.380000",
          "144750.380000",
          "144752.380000",
          "144754.380000",
          "144756.380000",
          "144758.380000",
          "144800.380000",
          "144802.380000",
          "144804.380000",
          "144806.380000",
          "144808.380000",
          "144810.380000",
          "144812.380000",
          "144814.380000",
          "144816.380000",
          "144818.380000",
          "144820.380000",
          "144822.380000",
          "144824.380000",
          "144826.380000",
          "144828.380000",
          "144830.380000",
          "144832.380000",
          "144834.380000",
          "144836.380000",
          "144838.380000",
          "144840.380000",
          "144842.380000",
          "144844.380000",
          "144846.380000",
          "144848.380000",
          "144850.380000",
          "144852.380000",
          "144854.380000",
          "144856.380000",
          "144858.380000",
          "144900.380000",
          "144902.380000",
          "144904.380000",
          "144906.380000",
          "144908.380000",
          "144910.380000",
          "144912.380000",
          "144914.380000",
          "144916.380000",
          "144918.380000",
          "144920.380000",
          "144922.380000",
          "144924.380000",
          "144926.380000",
          "144928.380000",
          "144930.380000",
          "144932.380000",
          "144934.380000"
        ],
        "ContentTime": [
          "144439.598000",
          "144441.593000",
          "144443.592000",
          "144445.592000",
          "144447.592000",
          "144449.592000",
          "144451.593000",
          "144453.593000",
          "144455.593000",
          "144457.593000",
          "144459.593000",
          "144501.592000",
          "144503.592000",
          "144505.592000",
          "144507.593000",
          "144509.593000",
          "144511.593000",
          "144513.593000",
          "144515.593000",
          "144517.593000",
          "144519.592000",
          "144521.592000",
          "144523.592000",
          "144525.593000",
          "144527.593000",
          "144529.593000",
          "144531.593000",
          "144533.593000",
          "144535.592000",
          "144537.592000",
          "144539.592000",
          "144541.592000",
          "144543.593000",
          "144545.593000",
          "144547.593000",
          "144549.593000",
          "144551.593000",
          "144553.592000",
          "144555.592000",
          "144557.592000",
          "144559.592000",
          "144601.593000",
          "144603.593000",
          "144605.593000",
          "144607.593000",
          "144609.593000",
          "144611.592000",
          "144613.592000",
          "144615.592000",
          "144617.593000",
          "144619.593000",
          "144621.593000",
          "144623.593000",
          "144625.608000",
          "144627.593000",
          "144629.592000",
          "144631.592000",
          "144633.592000",
          "144635.593000",
          "144637.593000",
          "144639.593000",
          "144641.593000",
          "144643.593000",
          "144645.592000",
          "144647.592000",
          "144649.592000",
          "144651.592000",
          "144653.593000",
          "144655.593000",
          "144657.593000",
          "144659.593000",
          "144701.593000",
          "144703.592000",
          "144705.592000",
          "144707.592000",
          "144709.592000",
          "144711.593000",
          "144713.593000",
          "144715.593000",
          "144717.593000",
          "144719.593000",
          "144721.592000",
          "144723.592000",
          "144725.592000",
          "144727.593000",
          "144729.593000",
          "144731.593000",
          "144733.593000",
          "144735.593000",
          "144737.593000",
          "144739.592000",
          "144741.592000",
          "144743.592000",
          "144745.593000",
          "144747.593000",
          "144749.593000",
          "144751.593000",
          "144753.593000",
          "144755.592000",
          "144757.592000",
          "144759.592000",
          "144801.592000",
          "144803.593000",
          "144805.593000",
          "144807.593000",
          "144809.593000",
          "144811.593000",
          "144813.592000",
          "144815.592000",
          "144817.592000",
          "144819.592000",
          "144821.593000",
          "144823.593000",
          "144825.593000",
          "144827.593000",
          "144829.593000",
          "144831.592000",
          "144833.592000",
          "144835.592000",
          "144837.593000",
          "144839.593000",
          "144841.593000",
          "144843.593000",
          "144845.593000",
          "144847.593000",
          "144849.592000",
          "144851.592000",
          "144853.592000",
          "144855.593000",
          "144857.593000",
          "144859.593000",
          "144901.593000",
          "144903.593000",
          "144905.592000",
          "144907.592000",
          "144909.592000",
          "144911.592000",
          "144913.593000",
          "144915.593000",
          "144917.593000",
          "144919.593000",
          "144921.593000",
          "144923.592000",
          "144925.592000",
          "144927.592000",
          "144929.592000",
          "144931.593000",
          "144933.593000",
          "144935.593000",
          "144937.209000"
        ],
        "InstanceCreationTime": [
          "144439.598000",
          "144441.593000",
          "144443.592000",
          "144445.592000",
          "144447.592000",
          "144449.592000",
          "144451.593000",
          "144453.593000",
          "144455.593000",
          "144457.593000",
          "144459.593000",
          "144501.592000",
          "144503.592000",
          "144505.592000",
          "144507.593000",
          "144509.593000",
          "144511.593000",
          "144513.593000",
          "144515.593000",
          "144517.593000",
          "144519.592000",
          "144521.592000",
          "144523.592000",
          "144525.593000",
          "144527.593000",
          "144529.593000",
          "144531.593000",
          "144533.593000",
          "144535.592000",
          "144537.592000",
          "144539.592000",
          "144541.592000",
          "144543.593000",
          "144545.593000",
          "144547.593000",
          "144549.593000",
          "144551.593000",
          "144553.592000",
          "144555.592000",
          "144557.592000",
          "144559.592000",
          "144601.593000",
          "144603.593000",
          "144605.593000",
          "144607.593000",
          "144609.593000",
          "144611.592000",
          "144613.592000",
          "144615.592000",
          "144617.593000",
          "144619.593000",
          "144621.593000",
          "144623.593000",
          "144625.608000",
          "144627.593000",
          "144629.592000",
          "144631.592000",
          "144633.592000",
          "144635.593000",
          "144637.593000",
          "144639.593000",
          "144641.593000",
          "144643.593000",
          "144645.592000",
          "144647.592000",
          "144649.592000",
          "144651.592000",
          "144653.593000",
          "144655.593000",
          "144657.593000",
          "144659.593000",
          "144701.593000",
          "144703.592000",
          "144705.592000",
          "144707.592000",
          "144709.592000",
          "144711.593000",
          "144713.593000",
          "144715.593000",
          "144717.593000",
          "144719.593000",
          "144721.592000",
          "144723.592000",
          "144725.592000",
          "144727.593000",
          "144729.593000",
          "144731.593000",
          "144733.593000",
          "144735.593000",
          "144737.593000",
          "144739.592000",
          "144741.592000",
          "144743.592000",
          "144745.593000",
          "144747.593000",
          "144749.593000",
          "144751.593000",
          "144753.593000",
          "144755.592000",
          "144757.592000",
          "144759.592000",
          "144801.592000",
          "144803.593000",
          "144805.593000",
          "144807.593000",
          "144809.593000",
          "144811.593000",
          "144813.592000",
          "144815.592000",
          "144817.592000",
          "144819.592000",
          "144821.593000",
          "144823.593000",
          "144825.593000",
          "144827.593000",
          "144829.593000",
          "144831.592000",
          "144833.592000",
          "144835.592000",
          "144837.593000",
          "144839.593000",
          "144841.593000",
          "144843.593000",
          "144845.593000",
          "144847.593000",
          "144849.592000",
          "144851.592000",
          "144853.592000",
          "144855.593000",
          "144857.593000",
          "144859.593000",
          "144901.593000",
          "144903.593000",
          "144905.592000",
          "144907.592000",
          "144909.592000",
          "144911.592000",
          "144913.593000",
          "144915.593000",
          "144917.593000",
          "144919.593000",
          "144921.593000",
          "144923.592000",
          "144925.592000",
          "144927.592000",
          "144929.592000",
          "144931.593000",
          "144933.593000",
          "144935.593000",
          "144937.209000"
        ],
        "InstanceNumber": [
          1,
          2,
          3,
          4,
          5,
          6,
          7,
          8,
          9,
          10,
          11,
          12,
          13,
          14,
          15,
          16,
          17,
          18,
          19,
          20,
          21,
          22,
          23,
          24,
          25,
          26,
          27,
          28,
          29,
          30,
          31,
          32,
          33,
          34,
          35,
          36,
          37,
          38,
          39,
          40,
          41,
          42,
          43,
          44,
          45,
          46,
          47,
          48,
          49,
          50,
          51,
          52,
          53,
          54,
          55,
          56,
          57,
          58,
          59,
          60,
          61,
          62,
          63,
          64,
          65,
          66,
          67,
          68,
          69,
          70,
          71,
          72,
          73,
          74,
          75,
          76,
          77,
          78,
          79,
          80,
          81,
          82,
          83,
          84,
          85,
          86,
          87,
          88,
          89,
          90,
          91,
          92,
          93,
          94,
          95,
          96,
          97,
          98,
          99,
          100,
          101,
          102,
          103,
          104,
          105,
          106,
          107,
          108,
          109,
          110,
          111,
          112,
          113,
          114,
          115,
          116,
          117,
          118,
          119,
          120,
          121,
          122,
          123,
          124,
          125,
          126,
          127,
          128,
          129,
          130,
          131,
          132,
          133,
          134,
          135,
          136,
          137,
          138,
          139,
          140,
          141,
          142,
          143,
          144,
          145,
          146,
          147,
          148,
          149,
          150
        ],
        "LargestImagePixelValue": [
          24726,
          24000,
          24353,
          23609,
          23537,
          24055,
          23836,
          23871,
          24054,
          23913,
          23679,
          24040,
          23684,
          23738,
          23682,
          23706,
          23796,
          23796,
          23822,
          23621,
          23872,
          24228,
          23731,
          24042,
          24079,
          23851,
          23714,
          23910,
          23797,
          24211,
          24154,
          23959,
          23927,
          23998,
          23885,
          23910,
          24259,
          23991,
          24297,
          23581,
          23934,
          24279,
          24665,
          24051,
          23912,
          25245,
          24161,
          24247,
          23924,
          24024,
          24030,
          24025,
          23937,
          23875,
          24039,
          24006,
          24467,
          23555,
          24425,
          24875,
          24258,
          23502,
          25239,
          23694,
          23317,
          25192,
          25157,
          23972,
          24653,
          24990,
          23636,
          23825,
          25484,
          23788,
          24610,
          23834,
          23828,
          24096,
          24405,
          24142,
          24347,
          24201,
          24169,
          24453,
          24038,
          24250,
          23445,
          25065,
          25422,
          26203,
          25392,
          24841,
          24719,
          25102,
          24306,
          24886,
          25195,
          24683,
          25317,
          25646,
          24659,
          25523,
          25645,
          24840,
          25318,
          24553,
          24193,
          23999,
          24275,
          23863,
          24327,
          24229,
          24149,
          23654,
          23994,
          24022,
          23779,
          23692,
          23693,
          23693,
          23697,
          23912,
          23971,
          23934,
          23827,
          23851,
          24158,
          23854,
          23922,
          23928,
          23856,
          24216,
          23992,
          24135,
          23837,
          23932,
          24006,
          23653,
          23740,
          24129,
          23770,
          23456,
          24393,
          23976,
          23892,
          23463,
          23838,
          24309,
          23980,
          24338
        ],
        "TriggerTime": [
          11725.0,
          13725.0,
          15725.0,
          17725.0,
          19725.0,
          21725.0,
          23725.0,
          25725.0,
          27725.0,
          29725.0,
          31725.0,
          33725.0,
          35725.0,
          37725.0,
          39725.0,
          41725.0,
          43725.0,
          45725.0,
          47725.0,
          49725.0,
          51725.0,
          53725.0,
          55725.0,
          57725.0,
          59725.0,
          61725.0,
          63725.0,
          65725.0,
          67725.0,
          69725.0,
          71725.0,
          73725.0,
          75725.0,
          77725.0,
          79725.0,
          81725.0,
          83725.0,
          85725.0,
          87725.0,
          89725.0,
          91725.0,
          93725.0,
          95725.0,
          97725.0,
          99725.0,
          101725.0,
          103725.0,
          105725.0,
          107725.0,
          109725.0,
          111725.0,
          113725.0,
          115725.0,
          117725.0,
          119725.0,
          121725.0,
          123725.0,
          125725.0,
          127725.0,
          129725.0,
          131725.0,
          133725.0,
          135725.0,
          137725.0,
          139725.0,
          141725.0,
          143725.0,
          145725.0,
          147725.0,
          149725.0,
          151725.0,
          153725.0,
          155725.0,
          157725.0,
          159725.0,
          161725.0,
          163725.0,
          165725.0,
          167725.0,
          169725.0,
          171725.0,
          173725.0,
          175725.0,
          177725.0,
          179725.0,
          181725.0,
          183725.0,
          185725.0,
          187725.0,
          189725.0,
          191725.0,
          193725.0,
          195725.0,
          197725.0,
          199725.0,
          201725.0,
          203725.0,
          205725.0,
          207725.0,
          209725.0,
          211725.0,
          213725.0,
          215725.0,
          217725.0,
          219725.0,
          221725.0,
          223725.0,
          225725.0,
          227725.0,
          229725.0,
          231725.0,
          233725.0,
          235725.0,
          237725.0,
          239725.0,
          241725.0,
          243725.0,
          245725.0,
          247725.0,
          249725.0,
          251725.0,
          253725.0,
          255725.0,
          257725.0,
          259725.0,
          261725.0,
          263725.0,
          265725.0,
          267725.0,
          269725.0,
          271725.0,
          273725.0,
          275725.0,
          277725.0,
          279725.0,
          281725.0,
          283725.0,
          285725.0,
          287725.0,
          289725.0,
          291725.0,
          293725.0,
          295725.0,
          297725.0,
          299725.0,
          301725.0,
          303725.0,
          305725.0,
          307725.0,
          309725.0
        ],
        "WindowCenter": [
          8121.0,
          8113.0,
          8141.0,
          8116.0,
          8129.0,
          8129.0,
          8101.0,
          8127.0,
          8113.0,
          8103.0,
          8126.0,
          8117.0,
          8096.0,
          8096.0,
          8086.0,
          8074.0,
          8084.0,
          8093.0,
          8084.0,
          8095.0,
          8112.0,
          8101.0,
          8086.0,
          8104.0,
          8102.0,
          8101.0,
          8114.0,
          8099.0,
          8102.0,
          8139.0,
          8101.0,
          8128.0,
          8129.0,
          8101.0,
          8122.0,
          8132.0,
          8110.0,
          8120.0,
          8118.0,
          8103.0,
          8131.0,
          8109.0,
          8114.0,
          8119.0,
          8150.0,
          8153.0,
          8118.0,
          8128.0,
          8132.0,
          8131.0,
          8134.0,
          8113.0,
          8111.0,
          8112.0,
          8120.0,
          8095.0,
          8099.0,
          8104.0,
          8140.0,
          8134.0,
          8118.0,
          8109.0,
          8155.0,
          8108.0,
          8101.0,
          8152.0,
          8153.0,
          8134.0,
          8127.0,
          8115.0,
          8115.0,
          8128.0,
          8148.0,
          8129.0,
          8113.0,
          8078.0,
          8095.0,
          8086.0,
          8108.0,
          8126.0,
          8136.0,
          8115.0,
          8111.0,
          8115.0,
          8115.0,
          8134.0,
          8114.0,
          8125.0,
          8136.0,
          8156.0,
          8114.0,
          8087.0,
          8101.0,
          8149.0,
          8144.0,
          8159.0,
          8148.0,
          8131.0,
          8153.0,
          8154.0,
          8153.0,
          8177.0,
          8154.0,
          8148.0,
          8147.0,
          8111.0,
          8120.0,
          8107.0,
          8101.0,
          8115.0,
          8142.0,
          8127.0,
          8115.0,
          8116.0,
          8117.0,
          8117.0,
          8087.0,
          8086.0,
          8103.0,
          8105.0,
          8097.0,
          8122.0,
          8135.0,
          8126.0,
          8128.0,
          8145.0,
          8137.0,
          8136.0,
          8118.0,
          8117.0,
          8122.0,
          8122.0,
          8117.0,
          8123.0,
          8118.0,
          8124.0,
          8122.0,
          8117.0,
          8120.0,
          8118.0,
          8109.0,
          8109.0,
          8120.0,
          8116.0,
          8124.0,
