{
  "aor": 0.0020864666666666667,
  "aqi": 0.0037880926,
  "bids_meta": {
    "ConversionSoftware": "dcm2niix",
    "ConversionSoftwareVersion": "v1.0.20170207",
    "EchoTime": 0.0302,
    "EffectiveEchoSpacing": 0.000640002,
    "FlipAngle": 90,
    "ImageType": [
      "ORIGINAL",
      "PRIMARY",
      "M",
      "MB",
      "ND",
      "MOSAIC"
    ],
    "MagneticFieldStrength": 3,
    "Manufacturer": "Siemens",
    "ManufacturersModelName": "Prisma",
    "PhaseEncodingDirection": "j-",
    "ProcedureStepDescription": "CAMRIS_CHOP",
    "ProtocolName": "BOLD_resting1",
    "RepetitionTime": 2,
    "SliceTiming": [
      0,
      0.08,
      0.1575,
      0.2375,
      0.3175,
      0.395,
      0.475,
      0.555,
      0.6325,
      0.7125,
      0.7925,
      0.8725,
      0.95,
      1.03,
      1.11,
      1.1875,
      1.2675,
      1.3475,
      1.425,
      1.505,
      1.585,
      1.6625,
      1.7425,
      1.8225,
      1.9,
      0,
      0.08,
      0.1575,
      0.2375,
      0.3175,
      0.395,
      0.475,
      0.555,
      0.6325,
      0.7125,
      0.7925,
      0.8725,
      0.95,
      1.03,
      1.11,
      1.1875,
      1.2675,
      1.3475,
      1.425,
      1.505,
      1.585,
      1.6625,
      1.7425,
      1.8225,
      1.9,
      0,
      0.08,
      0.1575,
      0.2375,
      0.3175,
      0.395,
      0.475,
      0.555,
      0.6325,
      0.7125,
      0.7925,
      0.8725,
      0.95,
      1.03,
      1.11,
      1.1875,
      1.2675,
      1.3475,
      1.425,
      1.505,
      1.585,
      1.6625,
      1.7425,
      1.8225,
      1.9
    ],
    "TaskName": "piper",
    "dataset": "ds004228",
    "dcmmeta_affine": [
      [
        -2.0,
        0.0,
        0.0,
        96.0
      ],
      [
        0.0,
        2.0,
        0.0,
        -72.91600036621094
      ],
      [
        0.0,
        0.0,
        2.0,
        -55.32529830932617
      ],
      [
        0.0,
        0.0,
        0.0,
        1.0
      ]
    ],
    "dcmmeta_reorient_transform": [
      [
        0.0,
        -1.0,
        0.0,
        95.0
      ],
      [
        1.0,
        0.0,
        0.0,
        0.0
      ],
      [
        0.0,
        0.0,
        1.0,
        0.0
      ],
      [
        0.0,
        0.0,
        0.0,
        1.0
      ]
    ],
    "dcmmeta_shape": [
      96,
      96,
      75,
      150
    ],
    "dcmmeta_slice_dim": 2,
    "dcmmeta_version": 0.6,
    "global": {
      "const": {
        "AcquisitionMatrix": [
          96,
          0,
          0,
          96
        ],
        "AngioFlag": "N",
        "BitsAllocated": 16,
        "BitsStored": 16,
        "BodyPartExamined": "BRAIN",
        "CardiacNumberOfImages": 1,
        "Columns": 864,
        "EchoNumbers": 1,
        "EchoTime": 30.2,
        "EchoTrainLength": 84,
        "FlipAngle": 90.0,
        "HighBit": 15,
        "ImageOrientationPatient": [
          1.0,
          0.0,
          0.0,
          0.0,
          1.0,
          0.0
        ],
        "ImagePositionPatient": [
          -864.0,
          -885.084,
          -55.3253
        ],
        "ImageType": [
          "ORIGINAL",
          "PRIMARY",
          "M",
          "MB",
          "ND",
          "MOSAIC"
        ],
        "ImagedNucleus": "1H",
        "ImagingFrequency": 123.263,
        "InPlanePhaseEncodingDirection": "COL",
        "MRAcquisitionType": "2D",
        "MagneticFieldStrength": 3.0,
        "Manufacturer": "SIEMENS",
        "ManufacturerModelName": "Prisma",
        "Modality": "MR",
        "NominalInterval": 0,
        "NumberOfAverages": 1.0,
        "NumberOfFrames": 1,
        "NumberOfPhaseEncodingSteps": 84,
        "PercentPhaseFieldOfView": 100.0,
        "PercentSampling": 100.0,
        "PerformedProcedureStepStartTime": "134021.668000",
        "PhotometricInterpretation": "MONOCHROME2",
        "PixelBandwidth": 1860.0,
        "PixelRepresentation": 0,
        "PixelSpacing": [
          2.0,
          2.0
        ],
        "ProtocolName": "BOLD_resting1",
        "RepetitionTime": 2000.0,
        "Rows": 864,
        "SAR": 0.163255,
        "SamplesPerPixel": 1,
        "ScanOptions": [
          "PFP",
          "FS",
          "EXT"
        ],
        "ScanningSequence": "EP",
        "SequenceName": "epfid2d1_96",
        "SequenceVariant": [
          "SK",
          "SS"
        ],
        "SeriesDescription": "BOLD_resting1",
        "SeriesNumber": 19,
        "SeriesTime": "142030.357000",
        "SliceLocation": -55.3253,
        "SliceThickness": 2.0,
        "SmallestImagePixelValue": 0,
        "SoftwareVersions": "syngo MR E11",
        "SpacingBetweenSlices": 2.0,
        "SpecificCharacterSet": "ISO_IR 100",
        "StudyID": "1",
        "StudyTime": "134021.538000",
        "TransmitCoilName": "Body",
        "VariableFlipAngleFlag": "N",
        "WindowCenterWidthExplanation": "Algo1",
        "dBdt": 0.0
      },
      "slices": {}
    },
    "modality": "bold",
    "run_id": 1,
    "session_id": "01",
    "subject_id": "70",
    "task_id": "piper",
    "time": {
      "samples": {
        "AcquisitionNumber": [
          1,
          2,
          3,
          4,
          5,
          6,
          7,
          8,
          9,
          10,
          11,
          12,
          13,
          14,
          15,
          16,
          17,
          18,
          19,
          20,
          21,
          22,
          23,
          24,
          25,
          26,
          27,
          28,
          29,
          30,
          31,
          32,
          33,
          34,
          35,
          36,
          37,
          38,
          39,
          40,
          41,
          42,
          43,
          44,
          45,
          46,
          47,
          48,
          49,
          50,
          51,
          52,
          53,
          54,
          55,
          56,
          57,
          58,
          59,
          60,
          61,
          62,
          63,
          64,
          65,
          66,
          67,
          68,
          69,
          70,
          71,
          72,
          73,
          74,
          75,
          76,
          77,
          78,
          79,
          80,
          81,
          82,
          83,
          84,
          85,
          86,
          87,
          88,
          89,
          90,
          91,
          92,
          93,
          94,
          95,
          96,
          97,
          98,
          99,
          100,
          101,
          102,
          103,
          104,
          105,
          106,
          107,
          108,
          109,
          110,
          111,
          112,
          113,
          114,
          115,
          116,
          117,
          118,
          119,
          120,
          121,
          122,
          123,
          124,
          125,
          126,
          127,
          128,
          129,
          130,
          131,
          132,
          133,
          134,
          135,
          136,
          137,
          138,
          139,
          140,
          141,
          142,
          143,
          144,
          145,
          146,
          147,
          148,
          149,
          150
        ],
        "AcquisitionTime": [
          "142027.677500",
          "142029.677500",
          "142031.677500",
          "142033.677500",
          "142035.677500",
          "142037.677500",
          "142039.677500",
          "142041.677500",
          "142043.677500",
          "142045.677500",
          "142047.677500",
          "142049.677500",
          "142051.677500",
          "142053.677500",
          "142055.677500",
          "142057.677500",
          "142059.677500",
          "142101.677500",
          "142103.677500",
          "142105.677500",
          "142107.677500",
          "142109.677500",
          "142111.677500",
          "142113.677500",
          "142115.677500",
          "142117.677500",
          "142119.677500",
          "142121.677500",
          "142123.677500",
          "142125.677500",
          "142127.677500",
          "142129.677500",
          "142131.677500",
          "142133.677500",
          "142135.677500",
          "142137.677500",
          "142139.677500",
          "142141.677500",
          "142143.677500",
          "142145.677500",
          "142147.677500",
          "142149.677500",
          "142151.677500",
          "142153.677500",
          "142155.677500",
          "142157.677500",
          "142159.677500",
          "142201.677500",
          "142203.677500",
          "142205.677500",
          "142207.677500",
          "142209.677500",
          "142211.677500",
          "142213.677500",
          "142215.677500",
          "142217.677500",
          "142219.677500",
          "142221.677500",
          "142223.677500",
          "142225.677500",
          "142227.677500",
          "142229.677500",
          "142231.677500",
          "142233.677500",
          "142235.677500",
          "142237.677500",
          "142239.677500",
          "142241.677500",
          "142243.677500",
          "142245.677500",
          "142247.677500",
          "142249.677500",
          "142251.677500",
          "142253.677500",
          "142255.677500",
          "142257.677500",
          "142259.677500",
          "142301.677500",
          "142303.677500",
          "142305.677500",
          "142307.677500",
          "142309.677500",
          "142311.677500",
          "142313.677500",
          "142315.677500",
          "142317.677500",
          "142319.677500",
          "142321.677500",
          "142323.677500",
          "142325.677500",
          "142327.677500",
          "142329.677500",
          "142331.677500",
          "142333.677500",
          "142335.677500",
          "142337.677500",
          "142339.677500",
          "142341.677500",
          "142343.677500",
          "142345.677500",
          "142347.677500",
          "142349.677500",
          "142351.677500",
          "142353.677500",
          "142355.677500",
          "142357.677500",
          "142359.677500",
          "142401.677500",
          "142403.677500",
          "142405.677500",
          "142407.677500",
          "142409.677500",
          "142411.677500",
          "142413.677500",
          "142415.677500",
          "142417.677500",
          "142419.677500",
          "142421.677500",
          "142423.677500",
          "142425.677500",
          "142427.677500",
          "142429.677500",
          "142431.677500",
          "142433.677500",
          "142435.677500",
          "142437.677500",
          "142439.677500",
          "142441.677500",
          "142443.677500",
          "142445.677500",
          "142447.677500",
          "142449.677500",
          "142451.677500",
          "142453.677500",
          "142455.677500",
          "142457.677500",
          "142459.677500",
          "142501.677500",
          "142503.677500",
          "142505.677500",
          "142507.677500",
          "142509.677500",
          "142511.677500",
          "142513.677500",
          "142515.677500",
          "142517.677500",
          "142519.677500",
          "142521.677500",
          "142523.677500",
          "142525.677500"
        ],
        "ContentTime": [
          "142030.361000",
          "142032.356000",
          "142034.357000",
          "142036.357000",
          "142038.357000",
          "142040.357000",
          "142042.357000",
          "142044.357000",
          "142046.357000",
          "142048.356000",
          "142050.356000",
          "142052.357000",
          "142054.357000",
          "142056.357000",
          "142058.357000",
          "142100.357000",
          "142102.357000",
          "142104.356000",
          "142106.356000",
          "142108.357000",
          "142110.357000",
          "142112.357000",
          "142114.357000",
          "142116.357000",
          "142118.357000",
          "142120.357000",
          "142122.356000",
          "142124.356000",
          "142126.357000",
          "142128.357000",
          "142130.357000",
          "142132.357000",
          "142134.357000",
          "142136.357000",
          "142138.357000",
          "142140.356000",
          "142142.356000",
          "142144.357000",
          "142146.357000",
          "142148.357000",
          "142150.357000",
          "142152.357000",
          "142154.357000",
          "142156.357000",
          "142158.356000",
          "142200.356000",
          "142202.357000",
          "142204.357000",
          "142206.357000",
          "142208.357000",
          "142210.357000",
          "142212.357000",
          "142214.356000",
          "142216.356000",
          "142218.357000",
          "142220.357000",
          "142222.357000",
          "142224.357000",
          "142226.357000",
          "142228.357000",
          "142230.357000",
          "142232.356000",
          "142234.356000",
          "142236.357000",
          "142238.357000",
          "142240.357000",
          "142242.357000",
          "142244.357000",
          "142246.357000",
          "142248.357000",
          "142250.356000",
          "142252.356000",
          "142254.357000",
          "142256.357000",
          "142258.357000",
          "142300.357000",
          "142302.357000",
          "142304.357000",
          "142306.357000",
          "142308.356000",
          "142310.356000",
          "142312.357000",
          "142314.357000",
          "142316.357000",
          "142318.357000",
          "142320.375000",
          "142322.357000",
          "142324.356000",
          "142326.356000",
          "142328.357000",
          "142330.357000",
          "142332.357000",
          "142334.357000",
          "142336.357000",
          "142338.357000",
          "142340.357000",
          "142342.356000",
          "142344.356000",
          "142346.357000",
          "142348.357000",
          "142350.357000",
          "142352.357000",
          "142354.357000",
          "142356.357000",
          "142358.357000",
          "142400.356000",
          "142402.356000",
          "142404.357000",
          "142406.357000",
          "142408.357000",
          "142410.357000",
          "142412.357000",
          "142414.357000",
          "142416.357000",
          "142418.356000",
          "142420.356000",
          "142422.357000",
          "142424.357000",
          "142426.357000",
          "142428.357000",
          "142430.357000",
          "142432.357000",
          "142434.356000",
          "142436.356000",
          "142438.357000",
          "142440.357000",
          "142442.357000",
          "142444.357000",
          "142446.357000",
          "142448.357000",
          "142450.357000",
          "142452.356000",
          "142454.356000",
          "142456.357000",
          "142458.357000",
          "142500.357000",
          "142502.357000",
          "142504.357000",
          "142506.357000",
          "142508.357000",
          "142510.356000",
          "142512.356000",
          "142514.357000",
          "142516.357000",
          "142518.357000",
          "142520.357000",
          "142522.357000",
          "142524.357000",
          "142526.357000",
          "142528.253000"
        ],
        "InstanceCreationTime": [
          "142030.361000",
          "142032.356000",
          "142034.357000",
          "142036.357000",
          "142038.357000",
          "142040.357000",
          "142042.357000",
          "142044.357000",
          "142046.357000",
          "142048.356000",
          "142050.356000",
          "142052.357000",
          "142054.357000",
          "142056.357000",
          "142058.357000",
          "142100.357000",
          "142102.357000",
          "142104.356000",
          "142106.356000",
          "142108.357000",
          "142110.357000",
          "142112.357000",
          "142114.357000",
          "142116.357000",
          "142118.357000",
          "142120.357000",
          "142122.356000",
          "142124.356000",
          "142126.357000",
          "142128.357000",
          "142130.357000",
          "142132.357000",
          "142134.357000",
          "142136.357000",
          "142138.357000",
          "142140.356000",
          "142142.356000",
          "142144.357000",
          "142146.357000",
          "142148.357000",
          "142150.357000",
          "142152.357000",
          "142154.357000",
          "142156.357000",
          "142158.356000",
          "142200.356000",
          "142202.357000",
          "142204.357000",
          "142206.357000",
          "142208.357000",
          "142210.357000",
          "142212.357000",
          "142214.356000",
          "142216.356000",
          "142218.357000",
          "142220.357000",
          "142222.357000",
          "142224.357000",
          "142226.357000",
          "142228.357000",
          "142230.357000",
          "142232.356000",
          "142234.356000",
          "142236.357000",
          "142238.357000",
          "142240.357000",
          "142242.357000",
          "142244.357000",
          "142246.357000",
          "142248.357000",
          "142250.356000",
          "142252.356000",
          "142254.357000",
          "142256.357000",
          "142258.357000",
          "142300.357000",
          "142302.357000",
          "142304.357000",
          "142306.357000",
          "142308.356000",
          "142310.356000",
          "142312.357000",
          "142314.357000",
          "142316.357000",
          "142318.357000",
          "142320.375000",
          "142322.357000",
          "142324.356000",
          "142326.356000",
          "142328.357000",
          "142330.357000",
          "142332.357000",
          "142334.357000",
          "142336.357000",
          "142338.357000",
          "142340.357000",
          "142342.356000",
          "142344.356000",
          "142346.357000",
          "142348.357000",
          "142350.357000",
          "142352.357000",
          "142354.357000",
          "142356.357000",
          "142358.357000",
          "142400.356000",
          "142402.356000",
          "142404.357000",
          "142406.357000",
          "142408.357000",
          "142410.357000",
          "142412.357000",
          "142414.357000",
          "142416.357000",
          "142418.356000",
          "142420.356000",
          "142422.357000",
          "142424.357000",
          "142426.357000",
          "142428.357000",
          "142430.357000",
          "142432.357000",
          "142434.356000",
          "142436.356000",
          "142438.357000",
          "142440.357000",
          "142442.357000",
          "142444.357000",
          "142446.357000",
          "142448.357000",
          "142450.357000",
          "142452.356000",
          "142454.356000",
          "142456.357000",
          "142458.357000",
          "142500.357000",
          "142502.357000",
          "142504.357000",
          "142506.357000",
          "142508.357000",
          "142510.356000",
          "142512.356000",
          "142514.357000",
          "142516.357000",
          "142518.357000",
          "142520.357000",
          "142522.357000",
          "142524.357000",
          "142526.357000",
          "142528.253000"
        ],
        "InstanceNumber": [
          1,
          2,
          3,
          4,
          5,
          6,
          7,
          8,
          9,
          10,
          11,
          12,
          13,
          14,
          15,
          16,
          17,
          18,
          19,
          20,
          21,
          22,
          23,
          24,
          25,
          26,
          27,
          28,
          29,
          30,
          31,
          32,
          33,
          34,
          35,
          36,
          37,
          38,
          39,
          40,
          41,
          42,
          43,
          44,
          45,
          46,
          47,
          48,
          49,
          50,
          51,
          52,
          53,
          54,
          55,
          56,
          57,
          58,
          59,
          60,
          61,
          62,
          63,
          64,
          65,
          66,
          67,
          68,
          69,
          70,
          71,
          72,
          73,
          74,
          75,
          76,
          77,
          78,
          79,
          80,
          81,
          82,
          83,
          84,
          85,
          86,
          87,
          88,
          89,
          90,
          91,
          92,
          93,
          94,
          95,
          96,
          97,
          98,
          99,
          100,
          101,
          102,
          103,
          104,
          105,
          106,
          107,
          108,
          109,
          110,
          111,
          112,
          113,
          114,
          115,
          116,
          117,
          118,
          119,
          120,
          121,
          122,
          123,
          124,
          125,
          126,
          127,
          128,
          129,
          130,
          131,
          132,
          133,
          134,
          135,
          136,
          137,
          138,
          139,
          140,
          141,
          142,
          143,
          144,
          145,
          146,
          147,
          148,
          149,
          150
        ],
        "LargestImagePixelValue": [
          25341,
          24406,
          25159,
          23820,
          25420,
          23435,
          24381,
          24170,
          23382,
          24650,
          23134,
          25093,
          23411,
          24175,
          24185,
          25327,
          25002,
          23730,
          25599,
          25640,
          24285,
          25425,
          25279,
          24263,
          25078,
          24265,
          25521,
          24171,
          25588,
          24215,
          25364,
          25089,
          26092,
          24792,
          25171,
          25557,
          23988,
          24689,
          25823,
          24040,
          25458,
          23934,
          25217,
          23761,
          25140,
          24573,
          24840,
          24044,
          24568,
          25707,
          24052,
          25740,
          24291,
          25573,
          25235,
          24790,
          25475,
          23610,
          25275,
          25520,
          24623,
          24937,
          23781,
          24811,
          24428,
          25423,
          24249,
          25399,
          24051,
          24986,
          25511,
          25244,
          25431,
          26036,
          24813,
          24310,
          24487,
          24799,
          25129,
          23556,
          25329,
          23959,
          24875,
          24790,
          23424,
          25378,
          25653,
          24201,
          25492,
          24123,
          25811,
          25140,
          25262,
          26113,
          25295,
          25724,
          25306,
          25421,
          24791,
          24601,
          24236,
          25054,
          25732,
          24332,
          25510,
          24121,
          25114,
          24685,
          24616,
          25424,
          24827,
          25549,
          23447,
          24781,
          24045,
          25258,
          24706,
          25074,
          25033,
          24926,
          24831,
          24541,
          26032,
          25888,
          25129,
          25868,
          25823,
          24275,
          25315,
          24575,
          24793,
          23261,
          24447,
          25321,
          25085,
          24247,
          24757,
          24686,
          23846,
          23888,
          24900,
          23723,
          24592,
          24816,
          24373,
          24532,
          23705,
          24114,
          24149,
          25052
        ],
        "TriggerTime": [
          11720.0,
          13720.0,
          15720.0,
          17720.0,
          19720.0,
          21720.0,
          23720.0,
          25720.0,
          27720.0,
          29720.0,
          31720.0,
          33720.0,
          35720.0,
          37720.0,
          39720.0,
          41720.0,
          43720.0,
          45720.0,
          47720.0,
          49720.0,
          51720.0,
          53720.0,
          55720.0,
          57720.0,
          59720.0,
          61720.0,
          63720.0,
          65720.0,
          67720.0,
          69720.0,
          71720.0,
          73720.0,
          75720.0,
          77720.0,
          79720.0,
          81720.0,
          83720.0,
          85720.0,
          87720.0,
          89720.0,
          91720.0,
          93720.0,
          95720.0,
          97720.0,
          99720.0,
          101720.0,
          103720.0,
          105720.0,
          107720.0,
          109720.0,
          111720.0,
          113720.0,
          115720.0,
          117720.0,
          119720.0,
          121720.0,
          123720.0,
          125720.0,
          127720.0,
          129720.0,
          131720.0,
          133720.0,
          135720.0,
          137720.0,
          139720.0,
          141720.0,
          143720.0,
          145720.0,
          147720.0,
          149720.0,
          151720.0,
          153720.0,
          155720.0,
          157720.0,
          159720.0,
          161720.0,
          163720.0,
          165720.0,
          167720.0,
          169720.0,
          171720.0,
          173720.0,
          175720.0,
          177720.0,
          179720.0,
          181720.0,
          183720.0,
          185720.0,
          187720.0,
          189720.0,
          191720.0,
          193720.0,
          195720.0,
          197720.0,
          199720.0,
          201720.0,
          203720.0,
          205720.0,
          207720.0,
          209720.0,
          211720.0,
          213720.0,
          215720.0,
          217720.0,
          219720.0,
          221720.0,
          223720.0,
          225720.0,
          227720.0,
          229720.0,
          231720.0,
          233720.0,
          235720.0,
          237720.0,
          239720.0,
          241720.0,
          243720.0,
          245720.0,
          247720.0,
          249720.0,
          251720.0,
          253720.0,
          255720.0,
          257720.0,
          259720.0,
          261720.0,
          263720.0,
          265720.0,
          267720.0,
          269720.0,
          271720.0,
          273720.0,
          275720.0,
          277720.0,
          279720.0,
          281720.0,
          283720.0,
          285720.0,
          287720.0,
          289720.0,
          291720.0,
          293720.0,
          295720.0,
          297720.0,
          299720.0,
          301720.0,
          303720.0,
          305720.0,
          307720.0,
          309720.0
        ],
        "WindowCenter": [
          8146.0,
          8141.0,
          8147.0,
          8136.0,
          8155.0,
          8130.0,
          8129.0,
          8128.0,
          8118.0,
          8139.0,
          8111.0,
          8146.0,
          8109.0,
          8120.0,
          8142.0,
          8162.0,
          8145.0,
          8143.0,
          8173.0,
          8175.0,
          8161.0,
          8165.0,
          8176.0,
          8152.0,
          8147.0,
          8151.0,
          8164.0,
          8123.0,
          8154.0,
          8145.0,
          8147.0,
          8148.0,
          8189.0,
          8163.0,
          8178.0,
          8178.0,
          8156.0,
          8171.0,
          8182.0,
          8137.0,
          8164.0,
          8143.0,
          8156.0,
          8138.0,
          8175.0,
          8160.0,
          8158.0,
          8144.0,
          8169.0,
          8177.0,
          8146.0,
          8164.0,
          8153.0,
          8165.0,
          8169.0,
          8164.0,
          8167.0,
          8110.0,
          8139.0,
          8165.0,
          8134.0,
          8133.0,
          8129.0,
          8142.0,
          8117.0,
          8158.0,
          8156.0,
          8150.0,
          8127.0,
          8160.0,
          8156.0,
          8149.0,
          8159.0,
          8174.0,
          8141.0,
          8132.0,
          8152.0,
          8149.0,
          8148.0,
          8119.0,
          8158.0,
          8126.0,
          8136.0,
          8122.0,
          8101.0,
          8159.0,
          8168.0,
          8154.0,
          8167.0,
          8137.0,
          8183.0,
          8169.0,
          8169.0,
          8194.0,
          8181.0,
          8176.0,
          8169.0,
          8188.0,
          8166.0,
          8145.0,
          8146.0,
          8162.0,
          8157.0,
          8122.0,
          8145.0,
          8127.0,
          8142.0,
          8150.0,
          8152.0,
          8159.0,
          8151.0,
          8166.0,
          8123.0,
          8133.0,
          8129.0,
          8161.0,
          8164.0,
          8154.0,
          8162.0,
          8172.0,
          8152.0,
          8165.0,
          8203.0,
          8203.0,
          8179.0,
          8193.0,
          8192.0,
          8157.0,
          8158.0,
          8151.0,
          8152.0,
          8110.0,
          8153.0,
          8178.0,
          8150.0,
          8113.0,
          8132.0,
          8132.0,
          8117.0,
          8137.0,
          8142.0,
          8102.0,
          8123.0,
          8152.0,
          8129.0,
          8124.0,
