{
  "aor": 0.004838933333333333,
  "aqi": 0.007470570533333334,
  "bids_meta": {
    "ConversionSoftware": "dcm2niix",
    "ConversionSoftwareVersion": "v1.0.20170207",
    "EchoTime": 0.0302,
    "EffectiveEchoSpacing": 0.000640002,
    "FlipAngle": 90,
    "ImageType": [
      "ORIGINAL",
      "PRIMARY",
      "M",
      "MB",
      "ND",
      "MOSAIC"
    ],
    "MagneticFieldStrength": 3,
    "Manufacturer": "Siemens",
    "ManufacturersModelName": "Prisma",
    "PhaseEncodingDirection": "j-",
    "ProcedureStepDescription": "CAMRIS_CHOP",
    "ProtocolName": "BOLD_resting1",
    "RepetitionTime": 2,
    "SliceTiming": [
      0,
      0.08,
      0.16,
      0.2375,
      0.3175,
      0.3975,
      0.475,
      0.555,
      0.635,
      0.7125,
      0.7925,
      0.8725,
      0.95,
      1.03,
      1.11,
      1.1875,
      1.2675,
      1.3475,
      1.425,
      1.505,
      1.585,
      1.6625,
      1.7425,
      1.8225,
      1.9,
      0,
      0.08,
      0.16,
      0.2375,
      0.3175,
      0.3975,
      0.475,
      0.555,
      0.635,
      0.7125,
      0.7925,
      0.8725,
      0.95,
      1.03,
      1.11,
      1.1875,
      1.2675,
      1.3475,
      1.425,
      1.505,
      1.585,
      1.6625,
      1.7425,
      1.8225,
      1.9,
      0,
      0.08,
      0.16,
      0.2375,
      0.3175,
      0.3975,
      0.475,
      0.555,
      0.635,
      0.7125,
      0.7925,
      0.8725,
      0.95,
      1.03,
      1.11,
      1.1875,
      1.2675,
      1.3475,
      1.425,
      1.505,
      1.585,
      1.6625,
      1.7425,
      1.8225,
      1.9
    ],
    "TaskName": "piper",
    "dataset": "ds004228",
    "dcmmeta_affine": [
      [
        -2.0,
        0.0,
        0.0,
        96.6050033569336
      ],
      [
        0.0,
        2.0,
        0.0,
        -86.13099670410156
      ],
      [
        0.0,
        0.0,
        2.0,
        -69.76270294189453
      ],
      [
        0.0,
        0.0,
        0.0,
        1.0
      ]
    ],
    "dcmmeta_reorient_transform": [
      [
        0.0,
        -1.0,
        0.0,
        95.0
      ],
      [
        1.0,
        0.0,
        0.0,
        0.0
      ],
      [
        0.0,
        0.0,
        1.0,
        0.0
      ],
      [
        0.0,
        0.0,
        0.0,
        1.0
      ]
    ],
    "dcmmeta_shape": [
      96,
      96,
      75,
      150
    ],
    "dcmmeta_slice_dim": 2,
    "dcmmeta_version": 0.6,
    "global": {
      "const": {
        "AcquisitionMatrix": [
          96,
          0,
          0,
          96
        ],
        "AngioFlag": "N",
        "BitsAllocated": 16,
        "BitsStored": 16,
        "BodyPartExamined": "BRAIN",
        "CardiacNumberOfImages": 1,
        "Columns": 864,
        "EchoNumbers": 1,
        "EchoTime": 30.2,
        "EchoTrainLength": 84,
        "FlipAngle": 90.0,
        "HighBit": 15,
        "ImageOrientationPatient": [
          1.0,
          0.0,
          0.0,
          0.0,
          1.0,
          0.0
        ],
        "ImagePositionPatient": [
          -864.605,
          -871.869,
          -69.7627
        ],
        "ImageType": [
          "ORIGINAL",
          "PRIMARY",
          "M",
          "MB",
          "ND",
          "MOSAIC"
        ],
        "ImagedNucleus": "1H",
        "ImagingFrequency": 123.255,
        "InPlanePhaseEncodingDirection": "COL",
        "MRAcquisitionType": "2D",
        "MagneticFieldStrength": 3.0,
        "Manufacturer": "SIEMENS",
        "ManufacturerModelName": "Prisma",
        "Modality": "MR",
        "NominalInterval": 0,
        "NumberOfAverages": 1.0,
        "NumberOfFrames": 1,
        "NumberOfPhaseEncodingSteps": 84,
        "PercentPhaseFieldOfView": 100.0,
        "PercentSampling": 100.0,
        "PerformedProcedureStepStartTime": "140000.271000",
        "PhotometricInterpretation": "MONOCHROME2",
        "PixelBandwidth": 1860.0,
        "PixelRepresentation": 0,
        "PixelSpacing": [
          2.0,
          2.0
        ],
        "ProtocolName": "BOLD_resting1",
        "RepetitionTime": 2000.0,
        "Rows": 864,
        "SAR": 0.182907,
        "SamplesPerPixel": 1,
        "ScanOptions": [
          "PFP",
          "FS",
          "EXT"
        ],
        "ScanningSequence": "EP",
        "SequenceName": "epfid2d1_96",
        "SequenceVariant": [
          "SK",
          "SS"
        ],
        "SeriesDescription": "BOLD_resting1",
        "SeriesNumber": 24,
        "SeriesTime": "144801.961000",
        "SliceLocation": -69.7627,
        "SliceThickness": 2.0,
        "SmallestImagePixelValue": 0,
        "SoftwareVersions": "syngo MR E11",
        "SpacingBetweenSlices": 2.0,
        "SpecificCharacterSet": "ISO_IR 100",
        "StudyID": "1",
        "StudyTime": "140000.192000",
        "TransmitCoilName": "Body",
        "VariableFlipAngleFlag": "N",
        "WindowCenterWidthExplanation": "Algo1",
        "dBdt": 0.0
      },
      "slices": {}
    },
    "modality": "bold",
    "run_id": 1,
    "session_id": "01",
    "subject_id": "68",
    "task_id": "piper",
    "time": {
      "samples": {
        "AcquisitionNumber": [
          1,
          2,
          3,
          4,
          5,
          6,
          7,
          8,
          9,
          10,
          11,
          12,
          13,
          14,
          15,
          16,
          17,
          18,
          19,
          20,
          21,
          22,
          23,
          24,
          25,
          26,
          27,
          28,
          29,
          30,
          31,
          32,
          33,
          34,
          35,
          36,
          37,
          38,
          39,
          40,
          41,
          42,
          43,
          44,
          45,
          46,
          47,
          48,
          49,
          50,
          51,
          52,
          53,
          54,
          55,
          56,
          57,
          58,
          59,
          60,
          61,
          62,
          63,
          64,
          65,
          66,
          67,
          68,
          69,
          70,
          71,
          72,
          73,
          74,
          75,
          76,
          77,
          78,
          79,
          80,
          81,
          82,
          83,
          84,
          85,
          86,
          87,
          88,
          89,
          90,
          91,
          92,
          93,
          94,
          95,
          96,
          97,
          98,
          99,
          100,
          101,
          102,
          103,
          104,
          105,
          106,
          107,
          108,
          109,
          110,
          111,
          112,
          113,
          114,
          115,
          116,
          117,
          118,
          119,
          120,
          121,
          122,
          123,
          124,
          125,
          126,
          127,
          128,
          129,
          130,
          131,
          132,
          133,
          134,
          135,
          136,
          137,
          138,
          139,
          140,
          141,
          142,
          143,
          144,
          145,
          146,
          147,
          148,
          149,
          150
        ],
        "AcquisitionTime": [
          "144758.447500",
          "144800.447500",
          "144802.447500",
          "144804.447500",
          "144806.447500",
          "144808.447500",
          "144810.447500",
          "144812.447500",
          "144814.447500",
          "144816.447500",
          "144818.447500",
          "144820.447500",
          "144822.447500",
          "144824.447500",
          "144826.447500",
          "144828.447500",
          "144830.447500",
          "144832.447500",
          "144834.447500",
          "144836.447500",
          "144838.447500",
          "144840.447500",
          "144842.447500",
          "144844.447500",
          "144846.447500",
          "144848.447500",
          "144850.447500",
          "144852.447500",
          "144854.447500",
          "144856.447500",
          "144858.447500",
          "144900.447500",
          "144902.447500",
          "144904.447500",
          "144906.447500",
          "144908.447500",
          "144910.447500",
          "144912.447500",
          "144914.447500",
          "144916.447500",
          "144918.447500",
          "144920.447500",
          "144922.447500",
          "144924.447500",
          "144926.447500",
          "144928.447500",
          "144930.447500",
          "144932.447500",
          "144934.447500",
          "144936.447500",
          "144938.447500",
          "144940.447500",
          "144942.447500",
          "144944.447500",
          "144946.447500",
          "144948.447500",
          "144950.447500",
          "144952.447500",
          "144954.447500",
          "144956.447500",
          "144958.447500",
          "145000.447500",
          "145002.447500",
          "145004.447500",
          "145006.447500",
          "145008.447500",
          "145010.447500",
          "145012.447500",
          "145014.447500",
          "145016.447500",
          "145018.447500",
          "145020.447500",
          "145022.447500",
          "145024.447500",
          "145026.447500",
          "145028.447500",
          "145030.447500",
          "145032.447500",
          "145034.447500",
          "145036.447500",
          "145038.447500",
          "145040.447500",
          "145042.447500",
          "145044.447500",
          "145046.447500",
          "145048.447500",
          "145050.447500",
          "145052.447500",
          "145054.447500",
          "145056.447500",
          "145058.447500",
          "145100.447500",
          "145102.447500",
          "145104.447500",
          "145106.447500",
          "145108.447500",
          "145110.447500",
          "145112.447500",
          "145114.447500",
          "145116.447500",
          "145118.447500",
          "145120.447500",
          "145122.447500",
          "145124.447500",
          "145126.447500",
          "145128.447500",
          "145130.447500",
          "145132.447500",
          "145134.447500",
          "145136.447500",
          "145138.447500",
          "145140.447500",
          "145142.447500",
          "145144.447500",
          "145146.447500",
          "145148.447500",
          "145150.447500",
          "145152.447500",
          "145154.447500",
          "145156.447500",
          "145158.447500",
          "145200.447500",
          "145202.447500",
          "145204.447500",
          "145206.447500",
          "145208.447500",
          "145210.447500",
          "145212.447500",
          "145214.447500",
          "145216.447500",
          "145218.447500",
          "145220.447500",
          "145222.447500",
          "145224.447500",
          "145226.447500",
          "145228.447500",
          "145230.447500",
          "145232.447500",
          "145234.447500",
          "145236.447500",
          "145238.447500",
          "145240.447500",
          "145242.447500",
          "145244.447500",
          "145246.447500",
          "145248.447500",
          "145250.447500",
          "145252.447500",
          "145254.447500",
          "145256.447500"
        ],
        "ContentTime": [
          "144801.965000",
          "144803.961000",
          "144805.961000",
          "144807.961000",
          "144809.961000",
          "144811.960000",
          "144813.960000",
          "144815.960000",
          "144817.960000",
          "144819.961000",
          "144821.961000",
          "144823.961000",
          "144825.961000",
          "144827.961000",
          "144829.960000",
          "144831.960000",
          "144833.960000",
          "144835.960000",
          "144837.961000",
          "144839.961000",
          "144841.961000",
          "144843.961000",
          "144845.961000",
          "144847.960000",
          "144849.960000",
          "144851.960000",
          "144853.960000",
          "144855.961000",
          "144857.961000",
          "144859.961000",
          "144901.961000",
          "144903.961000",
          "144905.960000",
          "144907.960000",
          "144909.960000",
          "144911.960000",
          "144913.961000",
          "144915.961000",
          "144917.961000",
          "144919.961000",
          "144921.960000",
          "144923.960000",
          "144925.960000",
          "144927.960000",
          "144929.961000",
          "144931.961000",
          "144933.961000",
          "144935.961000",
          "144937.961000",
          "144939.960000",
          "144941.960000",
          "144943.960000",
          "144945.960000",
          "144947.961000",
          "144949.961000",
          "144951.961000",
          "144953.961000",
          "144955.961000",
          "144957.960000",
          "144959.960000",
          "145001.960000",
          "145003.960000",
          "145005.962000",
          "145007.961000",
          "145009.961000",
          "145011.961000",
          "145013.961000",
          "145015.960000",
          "145017.960000",
          "145019.960000",
          "145021.960000",
          "145023.961000",
          "145025.961000",
          "145027.961000",
          "145029.961000",
          "145031.960000",
          "145033.960000",
          "145035.960000",
          "145037.960000",
          "145039.961000",
          "145041.961000",
          "145043.961000",
          "145045.961000",
          "145047.961000",
          "145049.960000",
          "145051.960000",
          "145053.960000",
          "145055.960000",
          "145057.961000",
          "145059.961000",
          "145101.961000",
          "145103.961000",
          "145105.961000",
          "145107.960000",
          "145109.960000",
          "145111.960000",
          "145113.960000",
          "145115.961000",
          "145117.961000",
          "145119.961000",
          "145121.961000",
          "145123.961000",
          "145125.960000",
          "145127.960000",
          "145129.960000",
          "145131.960000",
          "145133.961000",
          "145135.961000",
          "145137.961000",
          "145139.961000",
          "145141.960000",
          "145143.960000",
          "145145.960000",
          "145147.960000",
          "145149.961000",
          "145151.961000",
          "145153.961000",
          "145155.974000",
          "145157.961000",
          "145159.960000",
          "145201.960000",
          "145203.960000",
          "145205.960000",
          "145207.961000",
          "145209.961000",
          "145211.961000",
          "145213.961000",
          "145215.961000",
          "145217.960000",
          "145219.960000",
          "145221.960000",
          "145223.960000",
          "145225.961000",
          "145227.961000",
          "145229.961000",
          "145231.961000",
          "145233.961000",
          "145235.960000",
          "145237.960000",
          "145239.960000",
          "145241.960000",
          "145243.961000",
          "145245.961000",
          "145247.961000",
          "145249.961000",
          "145251.960000",
          "145253.960000",
          "145255.960000",
          "145257.960000",
          "145259.705000"
        ],
        "InstanceCreationTime": [
          "144801.965000",
          "144803.961000",
          "144805.961000",
          "144807.961000",
          "144809.961000",
          "144811.960000",
          "144813.960000",
          "144815.960000",
          "144817.960000",
          "144819.961000",
          "144821.961000",
          "144823.961000",
          "144825.961000",
          "144827.961000",
          "144829.960000",
          "144831.960000",
          "144833.960000",
          "144835.960000",
          "144837.961000",
          "144839.961000",
          "144841.961000",
          "144843.961000",
          "144845.961000",
          "144847.960000",
          "144849.960000",
          "144851.960000",
          "144853.960000",
          "144855.961000",
          "144857.961000",
          "144859.961000",
          "144901.961000",
          "144903.961000",
          "144905.960000",
          "144907.960000",
          "144909.960000",
          "144911.960000",
          "144913.961000",
          "144915.961000",
          "144917.961000",
          "144919.961000",
          "144921.960000",
          "144923.960000",
          "144925.960000",
          "144927.960000",
          "144929.961000",
          "144931.961000",
          "144933.961000",
          "144935.961000",
          "144937.961000",
          "144939.960000",
          "144941.960000",
          "144943.960000",
          "144945.960000",
          "144947.961000",
          "144949.961000",
          "144951.961000",
          "144953.961000",
          "144955.961000",
          "144957.960000",
          "144959.960000",
          "145001.960000",
          "145003.960000",
          "145005.962000",
          "145007.961000",
          "145009.961000",
          "145011.961000",
          "145013.961000",
          "145015.960000",
          "145017.960000",
          "145019.960000",
          "145021.960000",
          "145023.961000",
          "145025.961000",
          "145027.961000",
          "145029.961000",
          "145031.960000",
          "145033.960000",
          "145035.960000",
          "145037.960000",
          "145039.961000",
          "145041.961000",
          "145043.961000",
          "145045.961000",
          "145047.961000",
          "145049.960000",
          "145051.960000",
          "145053.960000",
          "145055.960000",
          "145057.961000",
          "145059.961000",
          "145101.961000",
          "145103.961000",
          "145105.961000",
          "145107.960000",
          "145109.960000",
          "145111.960000",
          "145113.960000",
          "145115.961000",
          "145117.961000",
          "145119.961000",
          "145121.961000",
          "145123.961000",
          "145125.960000",
          "145127.960000",
          "145129.960000",
          "145131.960000",
          "145133.961000",
          "145135.961000",
          "145137.961000",
          "145139.961000",
          "145141.960000",
          "145143.960000",
          "145145.960000",
          "145147.960000",
          "145149.961000",
          "145151.961000",
          "145153.961000",
          "145155.974000",
          "145157.961000",
          "145159.960000",
          "145201.960000",
          "145203.960000",
          "145205.960000",
          "145207.961000",
          "145209.961000",
          "145211.961000",
          "145213.961000",
          "145215.961000",
          "145217.960000",
          "145219.960000",
          "145221.960000",
          "145223.960000",
          "145225.961000",
          "145227.961000",
          "145229.961000",
          "145231.961000",
          "145233.961000",
          "145235.960000",
          "145237.960000",
          "145239.960000",
          "145241.960000",
          "145243.961000",
          "145245.961000",
          "145247.961000",
          "145249.961000",
          "145251.960000",
          "145253.960000",
          "145255.960000",
          "145257.960000",
          "145259.705000"
        ],
        "InstanceNumber": [
          1,
          2,
          3,
          4,
          5,
          6,
          7,
          8,
          9,
          10,
          11,
          12,
          13,
          14,
          15,
          16,
          17,
          18,
          19,
          20,
          21,
          22,
          23,
          24,
          25,
          26,
          27,
          28,
          29,
          30,
          31,
          32,
          33,
          34,
          35,
          36,
          37,
          38,
          39,
          40,
          41,
          42,
          43,
          44,
          45,
          46,
          47,
          48,
          49,
          50,
          51,
          52,
          53,
          54,
          55,
          56,
          57,
          58,
          59,
          60,
          61,
          62,
          63,
          64,
          65,
          66,
          67,
          68,
          69,
          70,
          71,
          72,
          73,
          74,
          75,
          76,
          77,
          78,
          79,
          80,
          81,
          82,
          83,
          84,
          85,
          86,
          87,
          88,
          89,
          90,
          91,
          92,
          93,
          94,
          95,
          96,
          97,
          98,
          99,
          100,
          101,
          102,
          103,
          104,
          105,
          106,
          107,
          108,
          109,
          110,
          111,
          112,
          113,
          114,
          115,
          116,
          117,
          118,
          119,
          120,
          121,
          122,
          123,
          124,
          125,
          126,
          127,
          128,
          129,
          130,
          131,
          132,
          133,
          134,
          135,
          136,
          137,
          138,
          139,
          140,
          141,
          142,
          143,
          144,
          145,
          146,
          147,
          148,
          149,
          150
        ],
        "LargestImagePixelValue": [
          22268,
          22145,
          22127,
          21725,
          22482,
          22298,
          22613,
          22064,
          23331,
          21749,
          22197,
          21800,
          21728,
          22161,
          21891,
          21724,
          22630,
          21635,
          21737,
          22305,
          21430,
          21493,
          21934,
          22922,
          21721,
          22018,
          22704,
          22994,
          23104,
          22797,
          22031,
          22553,
          22042,
          21460,
          22059,
          21629,
          22912,
          21791,
          21125,
          21325,
          20925,
          21088,
          21610,
          21881,
          21252,
          22205,
          21896,
          22945,
          21375,
          21679,
          22069,
          20773,
          21743,
          22527,
          22005,
          22029,
          22921,
          21326,
          21823,
          22528,
          21789,
          21466,
          22789,
          21107,
          22127,
          22536,
          21043,
          21444,
          21091,
          21837,
          23119,
          22093,
          21519,
          21893,
          21515,
          22260,
          21667,
          22226,
          22903,
          21691,
          21645,
          22053,
          22100,
          22503,
          22974,
          21330,
          22695,
          22194,
          22162,
          21865,
          22225,
          21796,
          22475,
          23522,
          21525,
          21626,
          22953,
          22087,
          22713,
          21573,
          22248,
          21919,
          22850,
          22705,
          21568,
          22845,
          21481,
          21952,
          20954,
          21662,
          20788,
          22011,
          20879,
          21755,
          21554,
          21448,
          21330,
          20676,
          21262,
          21954,
          20489,
          21299,
          20884,
          21381,
          21037,
          21423,
          20955,
          21127,
          21706,
          20975,
          21405,
          21923,
          21233,
          20719,
          20780,
          21491,
          21577,
          22043,
          21551,
          21813,
          22250,
          21421,
          21787,
          21936,
          21725,
          22465,
          23024,
          21239,
          21944,
          21098
        ],
        "TriggerTime": [
          11730.0,
          13730.0,
          15730.0,
          17730.0,
          19730.0,
          21730.0,
          23730.0,
          25730.0,
          27730.0,
          29730.0,
          31730.0,
          33730.0,
          35730.0,
          37730.0,
          39730.0,
          41730.0,
          43730.0,
          45730.0,
          47730.0,
          49730.0,
          51730.0,
          53730.0,
          55730.0,
          57730.0,
          59730.0,
          61730.0,
          63730.0,
          65730.0,
          67730.0,
          69730.0,
          71730.0,
          73730.0,
          75730.0,
          77730.0,
          79730.0,
          81730.0,
          83730.0,
          85730.0,
          87730.0,
          89730.0,
          91730.0,
          93730.0,
          95730.0,
          97730.0,
          99730.0,
          101730.0,
          103730.0,
          105730.0,
          107730.0,
          109730.0,
          111730.0,
          113730.0,
          115730.0,
          117730.0,
          119730.0,
          121730.0,
          123730.0,
          125730.0,
          127730.0,
          129730.0,
          131730.0,
          133730.0,
          135730.0,
          137730.0,
          139730.0,
          141730.0,
          143730.0,
          145730.0,
          147730.0,
          149730.0,
          151730.0,
          153730.0,
          155730.0,
          157730.0,
          159730.0,
          161730.0,
          163730.0,
          165730.0,
          167730.0,
          169730.0,
          171730.0,
          173730.0,
          175730.0,
          177730.0,
          179730.0,
          181730.0,
          183730.0,
          185730.0,
          187730.0,
          189730.0,
          191730.0,
          193730.0,
          195730.0,
          197730.0,
          199730.0,
          201730.0,
          203730.0,
          205730.0,
          207730.0,
          209730.0,
          211730.0,
          213730.0,
          215730.0,
          217730.0,
          219730.0,
          221730.0,
          223730.0,
          225730.0,
          227730.0,
          229730.0,
          231730.0,
          233730.0,
          235730.0,
          237730.0,
          239730.0,
          241730.0,
          243730.0,
          245730.0,
          247730.0,
          249730.0,
          251730.0,
          253730.0,
          255730.0,
          257730.0,
          259730.0,
          261730.0,
          263730.0,
          265730.0,
          267730.0,
          269730.0,
          271730.0,
          273730.0,
          275730.0,
          277730.0,
          279730.0,
          281730.0,
          283730.0,
          285730.0,
          287730.0,
          289730.0,
          291730.0,
          293730.0,
          295730.0,
          297730.0,
          299730.0,
          301730.0,
          303730.0,
          305730.0,
          307730.0,
          309730.0
        ],
        "WindowCenter": [
          7883.0,
          7884.0,
          7883.0,
          7875.0,
          7882.0,
          7900.0,
          7888.0,
          7881.0,
          7911.0,
          7862.0,
          7890.0,
          7883.0,
          7870.0,
          7856.0,
          7850.0,
          7850.0,
          7864.0,
          7871.0,
          7862.0,
          7899.0,
          7887.0,
          7882.0,
          7891.0,
          7896.0,
          7880.0,
          7878.0,
          7895.0,
          7881.0,
          7863.0,
          7863.0,
          7867.0,
          7887.0,
          7880.0,
          7870.0,
          7869.0,
          7861.0,
          7883.0,
          7860.0,
          7854.0,
          7863.0,
          7856.0,
          7861.0,
          7866.0,
          7866.0,
          7860.0,
          7866.0,
          7871.0,
          7882.0,
          7860.0,
          7868.0,
          7855.0,
          7889.0,
          7901.0,
          7868.0,
          7833.0,
          7822.0,
          7869.0,
          7859.0,
          7860.0,
          7884.0,
          7889.0,
          7905.0,
          7906.0,
          7864.0,
          7865.0,
          7864.0,
          7842.0,
          7861.0,
          7875.0,
          7860.0,
          7882.0,
          7868.0,
          7875.0,
          7863.0,
          7883.0,
          7897.0,
          7889.0,
          7890.0,
          7902.0,
          7879.0,
          7878.0,
          7876.0,
          7877.0,
          7893.0,
          7901.0,
          7882.0,
          7904.0,
          7878.0,
          7886.0,
          7887.0,
          7896.0,
          7888.0,
          7886.0,
          7897.0,
          7870.0,
          7878.0,
          7912.0,
          7899.0,
          7902.0,
          7881.0,
          7903.0,
          7890.0,
          7883.0,
          7872.0,
          7868.0,
          7893.0,
          7880.0,
          7886.0,
          7863.0,
          7879.0,
          7873.0,
          7886.0,
          7863.0,
          7869.0,
          7858.0,
          7869.0,
          7880.0,
          7868.0,
          7861.0,
          7864.0,
          7845.0,
          7871.0,
          7864.0,
          7871.0,
          7862.0,
          7871.0,
          7863.0,
          7871.0,
          7880.0,
          7862.0,
          7869.0,
          7874.0,
          7864.0,
          7854.0,
          7851.0,
          7857.0,
          7869.0,
          7866.0,
          7860.0,
          7888.0,
          7907.0,
          7883.0,
          7879.0,
          7876.0,
          7868.0,
