{
  "aor": 0.0016780666666666665,
  "aqi": 0.0050579779333333325,
  "bids_meta": {
    "ConversionSoftware": "dcm2niix",
    "ConversionSoftwareVersion": "v1.0.20170207",
    "EchoTime": 0.0302,
    "EffectiveEchoSpacing": 0.000640002,
    "FlipAngle": 90,
    "ImageType": [
      "ORIGINAL",
      "PRIMARY",
      "M",
      "MB",
      "ND",
      "MOSAIC"
    ],
    "MagneticFieldStrength": 3,
    "Manufacturer": "Siemens",
    "ManufacturersModelName": "Prisma",
    "PhaseEncodingDirection": "j-",
    "ProcedureStepDescription": "CAMRIS_CHOP",
    "ProtocolName": "BOLD_resting1",
    "RepetitionTime": 2,
    "SliceTiming": [
      0,
      0.08,
      0.16,
      0.2375,
      0.3175,
      0.3975,
      0.475,
      0.555,
      0.635,
      0.7125,
      0.7925,
      0.8725,
      0.95,
      1.03,
      1.11,
      1.1875,
      1.2675,
      1.3475,
      1.425,
      1.505,
      1.585,
      1.6625,
      1.7425,
      1.8225,
      1.9025,
      0,
      0.08,
      0.16,
      0.2375,
      0.3175,
      0.3975,
      0.475,
      0.555,
      0.635,
      0.7125,
      0.7925,
      0.8725,
      0.95,
      1.03,
      1.11,
      1.1875,
      1.2675,
      1.3475,
      1.425,
      1.505,
      1.585,
      1.6625,
      1.7425,
      1.8225,
      1.9025,
      0,
      0.08,
      0.16,
      0.2375,
      0.3175,
      0.3975,
      0.475,
      0.555,
      0.635,
      0.7125,
      0.7925,
      0.8725,
      0.95,
      1.03,
      1.11,
      1.1875,
      1.2675,
      1.3475,
      1.425,
      1.505,
      1.585,
      1.6625,
      1.7425,
      1.8225,
      1.9025
    ],
    "TaskName": "piper",
    "dataset": "ds004228",
    "dcmmeta_affine": [
      [
        -2.0,
        0.0,
        0.0,
        96.0
      ],
      [
        0.0,
        2.0,
        0.0,
        -72.31300354003906
      ],
      [
        0.0,
        0.0,
        2.0,
        -36.65060043334961
      ],
      [
        0.0,
        0.0,
        0.0,
        1.0
      ]
    ],
    "dcmmeta_reorient_transform": [
      [
        0.0,
        -1.0,
        0.0,
        95.0
      ],
      [
        1.0,
        0.0,
        0.0,
        0.0
      ],
      [
        0.0,
        0.0,
        1.0,
        0.0
      ],
      [
        0.0,
        0.0,
        0.0,
        1.0
      ]
    ],
    "dcmmeta_shape": [
      96,
      96,
      75,
      150
    ],
    "dcmmeta_slice_dim": 2,
    "dcmmeta_version": 0.6,
    "global": {
      "const": {
        "AcquisitionMatrix": [
          96,
          0,
          0,
          96
        ],
        "AngioFlag": "N",
        "BitsAllocated": 16,
        "BitsStored": 16,
        "BodyPartExamined": "BRAIN",
        "CardiacNumberOfImages": 1,
        "Columns": 864,
        "EchoNumbers": 1,
        "EchoTime": 30.2,
        "EchoTrainLength": 84,
        "FlipAngle": 90.0,
        "HighBit": 15,
        "ImageOrientationPatient": [
          1.0,
          0.0,
          0.0,
          0.0,
          1.0,
          0.0
        ],
        "ImagePositionPatient": [
          -864.0,
          -885.687,
          -36.6506
        ],
        "ImageType": [
          "ORIGINAL",
          "PRIMARY",
          "M",
          "MB",
          "ND",
          "MOSAIC"
        ],
        "ImagedNucleus": "1H",
        "ImagingFrequency": 123.255,
        "InPlanePhaseEncodingDirection": "COL",
        "MRAcquisitionType": "2D",
        "MagneticFieldStrength": 3.0,
        "Manufacturer": "SIEMENS",
        "ManufacturerModelName": "Prisma",
        "Modality": "MR",
        "NominalInterval": 0,
        "NumberOfAverages": 1.0,
        "NumberOfFrames": 1,
        "NumberOfPhaseEncodingSteps": 84,
        "PercentPhaseFieldOfView": 100.0,
        "PercentSampling": 100.0,
        "PerformedProcedureStepStartTime": "123503.061000",
        "PhotometricInterpretation": "MONOCHROME2",
        "PixelBandwidth": 1860.0,
        "PixelRepresentation": 0,
        "PixelSpacing": [
          2.0,
          2.0
        ],
        "ProtocolName": "BOLD_resting1",
        "RepetitionTime": 2000.0,
        "Rows": 864,
        "SAR": 0.117595,
        "SamplesPerPixel": 1,
        "ScanOptions": [
          "PFP",
          "FS",
          "EXT"
        ],
        "ScanningSequence": "EP",
        "SequenceName": "epfid2d1_96",
        "SequenceVariant": [
          "SK",
          "SS"
        ],
        "SeriesDescription": "BOLD_resting1",
        "SeriesNumber": 20,
        "SeriesTime": "133030.803000",
        "SliceLocation": -36.6506,
        "SliceThickness": 2.0,
        "SmallestImagePixelValue": 0,
        "SoftwareVersions": "syngo MR E11",
        "SpacingBetweenSlices": 2.0,
        "SpecificCharacterSet": "ISO_IR 100",
        "StudyID": "1",
        "StudyTime": "123502.985000",
        "TransmitCoilName": "Body",
        "VariableFlipAngleFlag": "N",
        "WindowCenterWidthExplanation": "Algo1",
        "dBdt": 0.0
      },
      "slices": {}
    },
    "modality": "bold",
    "run_id": 1,
    "session_id": "01",
    "subject_id": "62",
    "task_id": "piper",
    "time": {
      "samples": {
        "AcquisitionNumber": [
          1,
          2,
          3,
          4,
          5,
          6,
          7,
          8,
          9,
          10,
          11,
          12,
          13,
          14,
          15,
          16,
          17,
          18,
          19,
          20,
          21,
          22,
          23,
          24,
          25,
          26,
          27,
          28,
          29,
          30,
          31,
          32,
          33,
          34,
          35,
          36,
          37,
          38,
          39,
          40,
          41,
          42,
          43,
          44,
          45,
          46,
          47,
          48,
          49,
          50,
          51,
          52,
          53,
          54,
          55,
          56,
          57,
          58,
          59,
          60,
          61,
          62,
          63,
          64,
          65,
          66,
          67,
          68,
          69,
          70,
          71,
          72,
          73,
          74,
          75,
          76,
          77,
          78,
          79,
          80,
          81,
          82,
          83,
          84,
          85,
          86,
          87,
          88,
          89,
          90,
          91,
          92,
          93,
          94,
          95,
          96,
          97,
          98,
          99,
          100,
          101,
          102,
          103,
          104,
          105,
          106,
          107,
          108,
          109,
          110,
          111,
          112,
          113,
          114,
          115,
          116,
          117,
          118,
          119,
          120,
          121,
          122,
          123,
          124,
          125,
          126,
          127,
          128,
          129,
          130,
          131,
          132,
          133,
          134,
          135,
          136,
          137,
          138,
          139,
          140,
          141,
          142,
          143,
          144,
          145,
          146,
          147,
          148,
          149,
          150
        ],
        "AcquisitionTime": [
          "133028.245000",
          "133030.245000",
          "133032.245000",
          "133034.245000",
          "133036.245000",
          "133038.245000",
          "133040.245000",
          "133042.245000",
          "133044.245000",
          "133046.245000",
          "133048.245000",
          "133050.245000",
          "133052.245000",
          "133054.245000",
          "133056.245000",
          "133058.245000",
          "133100.245000",
          "133102.245000",
          "133104.245000",
          "133106.245000",
          "133108.245000",
          "133110.245000",
          "133112.245000",
          "133114.245000",
          "133116.245000",
          "133118.245000",
          "133120.245000",
          "133122.245000",
          "133124.245000",
          "133126.245000",
          "133128.245000",
          "133130.245000",
          "133132.245000",
          "133134.245000",
          "133136.245000",
          "133138.245000",
          "133140.245000",
          "133142.245000",
          "133144.245000",
          "133146.245000",
          "133148.245000",
          "133150.245000",
          "133152.245000",
          "133154.245000",
          "133156.245000",
          "133158.245000",
          "133200.245000",
          "133202.245000",
          "133204.245000",
          "133206.245000",
          "133208.245000",
          "133210.245000",
          "133212.245000",
          "133214.245000",
          "133216.245000",
          "133218.245000",
          "133220.245000",
          "133222.245000",
          "133224.245000",
          "133226.245000",
          "133228.245000",
          "133230.245000",
          "133232.245000",
          "133234.245000",
          "133236.245000",
          "133238.245000",
          "133240.245000",
          "133242.245000",
          "133244.245000",
          "133246.245000",
          "133248.245000",
          "133250.245000",
          "133252.245000",
          "133254.245000",
          "133256.245000",
          "133258.245000",
          "133300.245000",
          "133302.245000",
          "133304.245000",
          "133306.245000",
          "133308.245000",
          "133310.245000",
          "133312.245000",
          "133314.245000",
          "133316.245000",
          "133318.245000",
          "133320.245000",
          "133322.245000",
          "133324.245000",
          "133326.245000",
          "133328.245000",
          "133330.245000",
          "133332.245000",
          "133334.245000",
          "133336.245000",
          "133338.245000",
          "133340.245000",
          "133342.245000",
          "133344.245000",
          "133346.245000",
          "133348.245000",
          "133350.245000",
          "133352.245000",
          "133354.245000",
          "133356.245000",
          "133358.245000",
          "133400.245000",
          "133402.245000",
          "133404.245000",
          "133406.245000",
          "133408.245000",
          "133410.245000",
          "133412.245000",
          "133414.245000",
          "133416.245000",
          "133418.245000",
          "133420.245000",
          "133422.245000",
          "133424.245000",
          "133426.245000",
          "133428.245000",
          "133430.245000",
          "133432.245000",
          "133434.245000",
          "133436.245000",
          "133438.245000",
          "133440.245000",
          "133442.245000",
          "133444.245000",
          "133446.245000",
          "133448.245000",
          "133450.245000",
          "133452.245000",
          "133454.245000",
          "133456.245000",
          "133458.245000",
          "133500.245000",
          "133502.245000",
          "133504.245000",
          "133506.245000",
          "133508.245000",
          "133510.245000",
          "133512.245000",
          "133514.245000",
          "133516.245000",
          "133518.245000",
          "133520.245000",
          "133522.245000",
          "133524.245000",
          "133526.245000"
        ],
        "ContentTime": [
          "133030.807000",
          "133032.802000",
          "133034.802000",
          "133036.802000",
          "133038.802000",
          "133040.802000",
          "133042.802000",
          "133044.802000",
          "133046.802000",
          "133048.802000",
          "133050.802000",
          "133052.802000",
          "133054.802000",
          "133056.802000",
          "133058.802000",
          "133100.802000",
          "133102.802000",
          "133104.802000",
          "133106.802000",
          "133108.802000",
          "133110.802000",
          "133112.802000",
          "133114.802000",
          "133116.802000",
          "133118.802000",
          "133120.802000",
          "133122.802000",
          "133124.802000",
          "133126.802000",
          "133128.803000",
          "133130.802000",
          "133132.827000",
          "133134.802000",
          "133136.802000",
          "133138.802000",
          "133141.302000",
          "133142.802000",
          "133144.802000",
          "133146.802000",
          "133148.802000",
          "133150.802000",
          "133152.802000",
          "133154.802000",
          "133156.802000",
          "133158.802000",
          "133200.802000",
          "133202.802000",
          "133204.802000",
          "133206.802000",
          "133208.802000",
          "133210.802000",
          "133212.802000",
          "133214.802000",
          "133216.802000",
          "133218.802000",
          "133220.802000",
          "133222.802000",
          "133225.302000",
          "133226.802000",
          "133228.822000",
          "133230.802000",
          "133232.802000",
          "133234.802000",
          "133236.802000",
          "133238.803000",
          "133240.802000",
          "133242.802000",
          "133244.802000",
          "133246.802000",
          "133248.802000",
          "133250.802000",
          "133252.802000",
          "133254.802000",
          "133256.802000",
          "133258.802000",
          "133300.802000",
          "133302.802000",
          "133304.802000",
          "133306.802000",
          "133308.802000",
          "133310.802000",
          "133312.802000",
          "133314.802000",
          "133316.802000",
          "133318.802000",
          "133320.802000",
          "133322.802000",
          "133324.802000",
          "133326.802000",
          "133328.802000",
          "133330.802000",
          "133332.802000",
          "133334.802000",
          "133336.802000",
          "133338.802000",
          "133340.802000",
          "133342.802000",
          "133344.802000",
          "133346.802000",
          "133348.803000",
          "133350.802000",
          "133352.802000",
          "133354.802000",
          "133356.802000",
          "133358.802000",
          "133400.802000",
          "133402.802000",
          "133404.802000",
          "133406.802000",
          "133408.802000",
          "133410.802000",
          "133412.802000",
          "133414.802000",
          "133416.802000",
          "133418.802000",
          "133420.802000",
          "133422.802000",
          "133424.802000",
          "133426.802000",
          "133428.802000",
          "133430.802000",
          "133432.802000",
          "133434.802000",
          "133436.802000",
          "133438.802000",
          "133440.802000",
          "133442.802000",
          "133444.802000",
          "133446.802000",
          "133448.802000",
          "133450.802000",
          "133452.802000",
          "133454.802000",
          "133456.802000",
          "133458.803000",
          "133500.802000",
          "133502.802000",
          "133504.802000",
          "133506.802000",
          "133508.802000",
          "133510.802000",
          "133512.802000",
          "133514.802000",
          "133516.802000",
          "133518.802000",
          "133520.802000",
          "133522.802000",
          "133524.802000",
          "133526.802000",
          "133528.802000"
        ],
        "InstanceCreationTime": [
          "133030.807000",
          "133032.802000",
          "133034.802000",
          "133036.802000",
          "133038.802000",
          "133040.802000",
          "133042.802000",
          "133044.802000",
          "133046.802000",
          "133048.802000",
          "133050.802000",
          "133052.802000",
          "133054.802000",
          "133056.802000",
          "133058.802000",
          "133100.802000",
          "133102.802000",
          "133104.802000",
          "133106.802000",
          "133108.802000",
          "133110.802000",
          "133112.802000",
          "133114.802000",
          "133116.802000",
          "133118.802000",
          "133120.802000",
          "133122.802000",
          "133124.802000",
          "133126.802000",
          "133128.803000",
          "133130.802000",
          "133132.827000",
          "133134.802000",
          "133136.802000",
          "133138.802000",
          "133141.302000",
          "133142.802000",
          "133144.802000",
          "133146.802000",
          "133148.802000",
          "133150.802000",
          "133152.802000",
          "133154.802000",
          "133156.802000",
          "133158.802000",
          "133200.802000",
          "133202.802000",
          "133204.802000",
          "133206.802000",
          "133208.802000",
          "133210.802000",
          "133212.802000",
          "133214.802000",
          "133216.802000",
          "133218.802000",
          "133220.802000",
          "133222.802000",
          "133225.302000",
          "133226.802000",
          "133228.822000",
          "133230.802000",
          "133232.802000",
          "133234.802000",
          "133236.802000",
          "133238.803000",
          "133240.802000",
          "133242.802000",
          "133244.802000",
          "133246.802000",
          "133248.802000",
          "133250.802000",
          "133252.802000",
          "133254.802000",
          "133256.802000",
          "133258.802000",
          "133300.802000",
          "133302.802000",
          "133304.802000",
          "133306.802000",
          "133308.802000",
          "133310.802000",
          "133312.802000",
          "133314.802000",
          "133316.802000",
          "133318.802000",
          "133320.802000",
          "133322.802000",
          "133324.802000",
          "133326.802000",
          "133328.802000",
          "133330.802000",
          "133332.802000",
          "133334.802000",
          "133336.802000",
          "133338.802000",
          "133340.802000",
          "133342.802000",
          "133344.802000",
          "133346.802000",
          "133348.803000",
          "133350.802000",
          "133352.802000",
          "133354.802000",
          "133356.802000",
          "133358.802000",
          "133400.802000",
          "133402.802000",
          "133404.802000",
          "133406.802000",
          "133408.802000",
          "133410.802000",
          "133412.802000",
          "133414.802000",
          "133416.802000",
          "133418.802000",
          "133420.802000",
          "133422.802000",
          "133424.802000",
          "133426.802000",
          "133428.802000",
          "133430.802000",
          "133432.802000",
          "133434.802000",
          "133436.802000",
          "133438.802000",
          "133440.802000",
          "133442.802000",
          "133444.802000",
          "133446.802000",
          "133448.802000",
          "133450.802000",
          "133452.802000",
          "133454.802000",
          "133456.802000",
          "133458.803000",
          "133500.802000",
          "133502.802000",
          "133504.802000",
          "133506.802000",
          "133508.802000",
          "133510.802000",
          "133512.802000",
          "133514.802000",
          "133516.802000",
          "133518.802000",
          "133520.802000",
          "133522.802000",
          "133524.802000",
          "133526.802000",
          "133528.802000"
        ],
        "InstanceNumber": [
          1,
          2,
          3,
          4,
          5,
          6,
          7,
          8,
          9,
          10,
          11,
          12,
          13,
          14,
          15,
          16,
          17,
          18,
          19,
          20,
          21,
          22,
          23,
          24,
          25,
          26,
          27,
          28,
          29,
          30,
          31,
          32,
          33,
          34,
          35,
          36,
          37,
          38,
          39,
          40,
          41,
          42,
          43,
          44,
          45,
          46,
          47,
          48,
          49,
          50,
          51,
          52,
          53,
          54,
          55,
          56,
          57,
          58,
          59,
          60,
          61,
          62,
          63,
          64,
          65,
          66,
          67,
          68,
          69,
          70,
          71,
          72,
          73,
          74,
          75,
          76,
          77,
          78,
          79,
          80,
          81,
          82,
          83,
          84,
          85,
          86,
          87,
          88,
          89,
          90,
          91,
          92,
          93,
          94,
          95,
          96,
          97,
          98,
          99,
          100,
          101,
          102,
          103,
          104,
          105,
          106,
          107,
          108,
          109,
          110,
          111,
          112,
          113,
          114,
          115,
          116,
          117,
          118,
          119,
          120,
          121,
          122,
          123,
          124,
          125,
          126,
          127,
          128,
          129,
          130,
          131,
          132,
          133,
          134,
          135,
          136,
          137,
          138,
          139,
          140,
          141,
          142,
          143,
          144,
          145,
          146,
          147,
          148,
          149,
          150
        ],
        "LargestImagePixelValue": [
          22496,
          22271,
          21934,
          22332,
          22783,
          21843,
          22320,
          22537,
          22406,
          22559,
          22499,
          22466,
          22233,
          22616,
          22161,
          21727,
          22073,
          21650,
          21867,
          21974,
          22056,
          21798,
          22075,
          21829,
          22205,
          22018,
          22165,
          21971,
          21998,
          21982,
          21241,
          21627,
          21170,
          21741,
          21851,
          21094,
          21685,
          21788,
          21061,
          21519,
          20874,
          21790,
          21483,
          21339,
          21155,
          21696,
          20936,
          21566,
          21264,
          21006,
          20333,
          20249,
          20838,
          20414,
          20623,
          20785,
          20341,
          20946,
          21166,
          20574,
          20914,
          20454,
          21403,
          20941,
          21198,
          20620,
          20605,
          21258,
          20388,
          20690,
          20952,
          21093,
          21122,
          20918,
          20372,
          20556,
          20226,
          20592,
          20487,
          21011,
          20815,
          20881,
          21153,
          20690,
          20364,
          20932,
          20393,
          20677,
          20802,
          20461,
          20763,
          20125,
          20855,
          21954,
          20963,
          20978,
          20201,
          20146,
          20555,
          20094,
          20798,
          20480,
          20398,
          21232,
          21587,
          20371,
          21372,
          20747,
          20263,
          20729,
          20169,
          20406,
          19942,
          20016,
          20126,
          20290,
          20117,
          20214,
          20011,
          19856,
          20382,
          20164,
          19722,
          20358,
          20823,
          20550,
          20262,
          19970,
          20487,
          20257,
          20140,
          20081,
          20197,
          20781,
          20322,
          20252,
          20018,
          20130,
          20730,
          20501,
          20420,
          20400,
          20175,
          20646,
          20986,
          20380,
          20473,
          20712,
          20257,
          20437
        ],
        "TriggerTime": [
          11652.5,
          13652.5,
          15652.5,
          17652.5,
          19652.5,
          21652.5,
          23652.5,
          25652.5,
          27652.5,
          29652.5,
          31652.5,
          33652.5,
          35652.5,
          37652.5,
          39652.5,
          41652.5,
          43652.5,
          45652.5,
          47652.5,
          49652.5,
          51652.5,
          53652.5,
          55652.5,
          57652.5,
          59652.5,
          61652.5,
          63652.5,
          65652.5,
          67652.5,
          69652.5,
          71652.5,
          73652.5,
          75652.5,
          77652.5,
          79652.5,
          81652.5,
          83652.5,
          85652.5,
          87652.5,
          89652.5,
          91652.5,
          93652.5,
          95652.5,
          97652.5,
          99652.5,
          101653.0,
          103653.0,
          105653.0,
          107653.0,
          109653.0,
          111653.0,
          113653.0,
          115653.0,
          117653.0,
          119653.0,
          121653.0,
          123653.0,
          125653.0,
          127653.0,
          129653.0,
          131653.0,
          133653.0,
          135653.0,
          137653.0,
          139653.0,
          141653.0,
          143653.0,
          145653.0,
          147653.0,
          149653.0,
          151653.0,
          153653.0,
          155653.0,
          157653.0,
          159653.0,
          161653.0,
          163653.0,
          165653.0,
          167653.0,
          169653.0,
          171653.0,
          173653.0,
          175653.0,
          177653.0,
          179653.0,
          181653.0,
          183653.0,
          185653.0,
          187653.0,
          189653.0,
          191653.0,
          193653.0,
          195653.0,
          197653.0,
          199653.0,
          201653.0,
          203653.0,
          205653.0,
          207653.0,
          209653.0,
          211653.0,
          213653.0,
          215653.0,
          217653.0,
          219653.0,
          221653.0,
          223653.0,
          225653.0,
          227653.0,
          229653.0,
          231653.0,
          233653.0,
          235653.0,
          237653.0,
          239653.0,
          241653.0,
          243653.0,
          245653.0,
          247653.0,
          249653.0,
          251653.0,
          253653.0,
          255653.0,
          257653.0,
          259653.0,
          261653.0,
          263653.0,
          265653.0,
          267653.0,
          269653.0,
          271653.0,
          273653.0,
          275653.0,
          277653.0,
          279653.0,
          281653.0,
          283653.0,
          285653.0,
          287653.0,
          289653.0,
          291653.0,
          293653.0,
          295653.0,
          297653.0,
          299653.0,
          301653.0,
          303653.0,
          305653.0,
          307653.0,
          309653.0
        ],
        "WindowCenter": [
          7661.0,
          7625.0,
          7639.0,
          7665.0,
          7653.0,
          7642.0,
          7654.0,
          7625.0,
          7656.0,
          7643.0,
          7655.0,
          7668.0,
          7627.0,
          7642.0,
          7638.0,
          7609.0,
          7605.0,
          7621.0,
          7619.0,
          7604.0,
          7618.0,
          7585.0,
          7626.0,
          7620.0,
          7606.0,
          7629.0,
          7599.0,
          7620.0,
          7586.0,
          7640.0,
          7586.0,
          7632.0,
          7628.0,
          7610.0,
          7654.0,
          7616.0,
          7621.0,
          7634.0,
          7585.0,
          7593.0,
          7590.0,
          7608.0,
          7615.0,
          7623.0,
          7584.0,
          7624.0,
          7568.0,
          7594.0,
          7585.0,
          7575.0,
          7592.0,
          7554.0,
          7590.0,
          7572.0,
          7551.0,
          7589.0,
          7550.0,
          7567.0,
          7618.0,
          7549.0,
          7582.0,
          7561.0,
          7619.0,
          7591.0,
          7576.0,
          7584.0,
          7561.0,
          7620.0,
          7561.0,
          7591.0,
          7601.0,
          7575.0,
          7588.0,
          7591.0,
          7549.0,
          7573.0,
          7551.0,
          7571.0,
          7573.0,
          7575.0,
          7590.0,
          7546.0,
          7565.0,
          7555.0,
          7547.0,
          7588.0,
          7569.0,
          7546.0,
          7575.0,
          7538.0,
          7557.0,
          7541.0,
          7547.0,
          7621.0,
          7554.0,
          7556.0,
          7544.0,
          7542.0,
          7594.0,
          7555.0,
          7566.0,
          7571.0,
          7549.0,
          7564.0,
          7603.0,
          7550.0,
          7574.0,
          7567.0,
          7520.0,
          7557.0,
          7541.0,
          7537.0,
          7535.0,
          7509.0,
          7542.0,
          7553.0,
          7530.0,
          7564.0,
          7519.0,
          7534.0,
          7569.0,
          7553.0,
          7557.0,
          7547.0,
          7555.0,
          7559.0,
          7553.0,
          7533.0,
          7571.0,
          7540.0,
          7542.0,
          7584.0,
          7550.0,
          7590.0,
          7549.0,
          7542.0,
          7567.0,
          7522.0,
          7567.0,
          7572.0,
          7572.0,
          7584.0,
          7554.0,
          7569.0,
          7589.0,
