{
  "aor": 0.0017132,
  "aqi": 0.004078470400000001,
  "bids_meta": {
    "ConversionSoftware": "dcm2niix",
    "ConversionSoftwareVersion": "v1.0.20170207",
    "EchoTime": 0.0302,
    "EffectiveEchoSpacing": 0.000640002,
    "FlipAngle": 90,
    "ImageType": [
      "ORIGINAL",
      "PRIMARY",
      "M",
      "MB",
      "ND",
      "MOSAIC"
    ],
    "MagneticFieldStrength": 3,
    "Manufacturer": "Siemens",
    "ManufacturersModelName": "Prisma",
    "PhaseEncodingDirection": "j-",
    "ProcedureStepDescription": "CAMRIS_CHOP",
    "ProtocolName": "BOLD_resting1",
    "RepetitionTime": 2,
    "SliceTiming": [
      0,
      0.08,
      0.1575,
      0.2375,
      0.3175,
      0.395,
      0.475,
      0.555,
      0.6325,
      0.7125,
      0.7925,
      0.87,
      0.95,
      1.03,
      1.1075,
      1.1875,
      1.2675,
      1.345,
      1.425,
      1.505,
      1.5825,
      1.6625,
      1.7425,
      1.82,
      1.9,
      0,
      0.08,
      0.1575,
      0.2375,
      0.3175,
      0.395,
      0.475,
      0.555,
      0.6325,
      0.7125,
      0.7925,
      0.87,
      0.95,
      1.03,
      1.1075,
      1.1875,
      1.2675,
      1.345,
      1.425,
      1.505,
      1.5825,
      1.6625,
      1.7425,
      1.82,
      1.9,
      0,
      0.08,
      0.1575,
      0.2375,
      0.3175,
      0.395,
      0.475,
      0.555,
      0.6325,
      0.7125,
      0.7925,
      0.87,
      0.95,
      1.03,
      1.1075,
      1.1875,
      1.2675,
      1.345,
      1.425,
      1.505,
      1.5825,
      1.6625,
      1.7425,
      1.82,
      1.9
    ],
    "TaskName": "piper",
    "dataset": "ds004228",
    "dcmmeta_affine": [
      [
        -2.0,
        0.0,
        0.0,
        96.0
      ],
      [
        0.0,
        2.0,
        0.0,
        -80.1449966430664
      ],
      [
        0.0,
        0.0,
        2.0,
        -49.90359878540039
      ],
      [
        0.0,
        0.0,
        0.0,
        1.0
      ]
    ],
    "dcmmeta_reorient_transform": [
      [
        0.0,
        -1.0,
        0.0,
        95.0
      ],
      [
        1.0,
        0.0,
        0.0,
        0.0
      ],
      [
        0.0,
        0.0,
        1.0,
        0.0
      ],
      [
        0.0,
        0.0,
        0.0,
        1.0
      ]
    ],
    "dcmmeta_shape": [
      96,
      96,
      75,
      150
    ],
    "dcmmeta_slice_dim": 2,
    "dcmmeta_version": 0.6,
    "global": {
      "const": {
        "AcquisitionMatrix": [
          96,
          0,
          0,
          96
        ],
        "AngioFlag": "N",
        "BitsAllocated": 16,
        "BitsStored": 16,
        "BodyPartExamined": "BRAIN",
        "CardiacNumberOfImages": 1,
        "Columns": 864,
        "EchoNumbers": 1,
        "EchoTime": 30.2,
        "EchoTrainLength": 84,
        "FlipAngle": 90.0,
        "HighBit": 15,
        "ImageOrientationPatient": [
          1.0,
          0.0,
          0.0,
          0.0,
          1.0,
          0.0
        ],
        "ImagePositionPatient": [
          -864.0,
          -877.855,
          -49.9036
        ],
        "ImageType": [
          "ORIGINAL",
          "PRIMARY",
          "M",
          "MB",
          "ND",
          "MOSAIC"
        ],
        "ImagedNucleus": "1H",
        "ImagingFrequency": 123.255,
        "InPlanePhaseEncodingDirection": "COL",
        "MRAcquisitionType": "2D",
        "MagneticFieldStrength": 3.0,
        "Manufacturer": "SIEMENS",
        "ManufacturerModelName": "Prisma",
        "Modality": "MR",
        "NominalInterval": 0,
        "NumberOfAverages": 1.0,
        "NumberOfFrames": 1,
        "NumberOfPhaseEncodingSteps": 84,
        "PercentPhaseFieldOfView": 100.0,
        "PercentSampling": 100.0,
        "PerformedProcedureStepStartTime": "133748.428000",
        "PhotometricInterpretation": "MONOCHROME2",
        "PixelBandwidth": 1860.0,
        "PixelRepresentation": 0,
        "PixelSpacing": [
          2.0,
          2.0
        ],
        "ProtocolName": "BOLD_resting1",
        "RepetitionTime": 2000.0,
        "Rows": 864,
        "SAR": 0.13595,
        "SamplesPerPixel": 1,
        "ScanOptions": [
          "PFP",
          "FS",
          "EXT"
        ],
        "ScanningSequence": "EP",
        "SequenceName": "epfid2d1_96",
        "SequenceVariant": [
          "SK",
          "SS"
        ],
        "SeriesDescription": "BOLD_resting1",
        "SeriesNumber": 20,
        "SeriesTime": "143215.612000",
        "SliceLocation": -49.9036,
        "SliceThickness": 2.0,
        "SmallestImagePixelValue": 0,
        "SoftwareVersions": "syngo MR E11",
        "SpacingBetweenSlices": 2.0,
        "SpecificCharacterSet": "ISO_IR 100",
        "StudyID": "1",
        "StudyTime": "133748.348000",
        "TransmitCoilName": "Body",
        "VariableFlipAngleFlag": "N",
        "WindowCenterWidthExplanation": "Algo1",
        "dBdt": 0.0
      },
      "slices": {}
    },
    "modality": "bold",
    "run_id": 1,
    "session_id": "01",
    "subject_id": "49",
    "task_id": "piper",
    "time": {
      "samples": {
        "AcquisitionNumber": [
          1,
          2,
          3,
          4,
          5,
          6,
          7,
          8,
          9,
          10,
          11,
          12,
          13,
          14,
          15,
          16,
          17,
          18,
          19,
          20,
          21,
          22,
          23,
          24,
          25,
          26,
          27,
          28,
          29,
          30,
          31,
          32,
          33,
          34,
          35,
          36,
          37,
          38,
          39,
          40,
          41,
          42,
          43,
          44,
          45,
          46,
          47,
          48,
          49,
          50,
          51,
          52,
          53,
          54,
          55,
          56,
          57,
          58,
          59,
          60,
          61,
          62,
          63,
          64,
          65,
          66,
          67,
          68,
          69,
          70,
          71,
          72,
          73,
          74,
          75,
          76,
          77,
          78,
          79,
          80,
          81,
          82,
          83,
          84,
          85,
          86,
          87,
          88,
          89,
          90,
          91,
          92,
          93,
          94,
          95,
          96,
          97,
          98,
          99,
          100,
          101,
          102,
          103,
          104,
          105,
          106,
          107,
          108,
          109,
          110,
          111,
          112,
          113,
          114,
          115,
          116,
          117,
          118,
          119,
          120,
          121,
          122,
          123,
          124,
          125,
          126,
          127,
          128,
          129,
          130,
          131,
          132,
          133,
          134,
          135,
          136,
          137,
          138,
          139,
          140,
          141,
          142,
          143,
          144,
          145,
          146,
          147,
          148,
          149,
          150
        ],
        "AcquisitionTime": [
          "143212.965000",
          "143214.965000",
          "143216.965000",
          "143218.965000",
          "143220.965000",
          "143222.965000",
          "143224.965000",
          "143226.965000",
          "143228.965000",
          "143230.965000",
          "143232.965000",
          "143234.965000",
          "143236.965000",
          "143238.965000",
          "143240.965000",
          "143242.965000",
          "143244.965000",
          "143246.965000",
          "143248.965000",
          "143250.965000",
          "143252.965000",
          "143254.965000",
          "143256.965000",
          "143258.965000",
          "143300.965000",
          "143302.965000",
          "143304.965000",
          "143306.965000",
          "143308.965000",
          "143310.965000",
          "143312.965000",
          "143314.965000",
          "143316.965000",
          "143318.965000",
          "143320.965000",
          "143322.965000",
          "143324.965000",
          "143326.965000",
          "143328.965000",
          "143330.965000",
          "143332.965000",
          "143334.965000",
          "143336.965000",
          "143338.965000",
          "143340.965000",
          "143342.965000",
          "143344.965000",
          "143346.965000",
          "143348.965000",
          "143350.965000",
          "143352.965000",
          "143354.965000",
          "143356.965000",
          "143358.965000",
          "143400.965000",
          "143402.965000",
          "143404.965000",
          "143406.965000",
          "143408.965000",
          "143410.965000",
          "143412.965000",
          "143414.965000",
          "143416.965000",
          "143418.965000",
          "143420.965000",
          "143422.965000",
          "143424.965000",
          "143426.965000",
          "143428.965000",
          "143430.965000",
          "143432.965000",
          "143434.965000",
          "143436.965000",
          "143438.965000",
          "143440.965000",
          "143442.965000",
          "143444.965000",
          "143446.965000",
          "143448.965000",
          "143450.965000",
          "143452.965000",
          "143454.965000",
          "143456.965000",
          "143458.965000",
          "143500.965000",
          "143502.965000",
          "143504.965000",
          "143506.965000",
          "143508.965000",
          "143510.965000",
          "143512.965000",
          "143514.965000",
          "143516.965000",
          "143518.965000",
          "143520.965000",
          "143522.965000",
          "143524.965000",
          "143526.965000",
          "143528.965000",
          "143530.965000",
          "143532.965000",
          "143534.965000",
          "143536.965000",
          "143538.965000",
          "143540.965000",
          "143542.965000",
          "143544.965000",
          "143546.965000",
          "143548.965000",
          "143550.965000",
          "143552.965000",
          "143554.965000",
          "143556.965000",
          "143558.965000",
          "143600.965000",
          "143602.965000",
          "143604.965000",
          "143606.965000",
          "143608.965000",
          "143610.965000",
          "143612.965000",
          "143614.965000",
          "143616.965000",
          "143618.965000",
          "143620.965000",
          "143622.965000",
          "143624.965000",
          "143626.965000",
          "143628.965000",
          "143630.965000",
          "143632.965000",
          "143634.965000",
          "143636.965000",
          "143638.965000",
          "143640.965000",
          "143642.965000",
          "143644.965000",
          "143646.965000",
          "143648.965000",
          "143650.965000",
          "143652.965000",
          "143654.965000",
          "143656.965000",
          "143658.965000",
          "143700.965000",
          "143702.965000",
          "143704.965000",
          "143706.965000",
          "143708.965000",
          "143710.965000"
        ],
        "ContentTime": [
          "143215.615000",
          "143217.612000",
          "143219.612000",
          "143221.612000",
          "143223.612000",
          "143225.612000",
          "143227.612000",
          "143229.612000",
          "143231.611000",
          "143233.611000",
          "143235.612000",
          "143237.612000",
          "143239.612000",
          "143241.612000",
          "143243.612000",
          "143245.612000",
          "143247.611000",
          "143249.611000",
          "143251.611000",
          "143253.612000",
          "143255.612000",
          "143257.629000",
          "143259.612000",
          "143301.612000",
          "143303.612000",
          "143305.611000",
          "143307.611000",
          "143309.611000",
          "143311.612000",
          "143313.612000",
          "143315.612000",
          "143317.612000",
          "143319.612000",
          "143321.612000",
          "143323.611000",
          "143325.611000",
          "143327.612000",
          "143329.612000",
          "143331.612000",
          "143333.612000",
          "143335.612000",
          "143337.612000",
          "143339.612000",
          "143341.611000",
          "143343.611000",
          "143345.612000",
          "143347.612000",
          "143349.612000",
          "143351.612000",
          "143353.612000",
          "143355.612000",
          "143357.611000",
          "143359.611000",
          "143401.611000",
          "143403.612000",
          "143405.612000",
          "143407.612000",
          "143409.612000",
          "143411.612000",
          "143413.612000",
          "143415.611000",
          "143417.611000",
          "143419.611000",
          "143421.612000",
          "143423.612000",
          "143425.612000",
          "143427.612000",
          "143429.612000",
          "143431.612000",
          "143433.611000",
          "143435.611000",
          "143437.612000",
          "143439.612000",
          "143441.612000",
          "143443.612000",
          "143445.612000",
          "143447.612000",
          "143449.612000",
          "143451.611000",
          "143453.611000",
          "143455.612000",
          "143457.612000",
          "143459.612000",
          "143501.612000",
          "143503.612000",
          "143505.612000",
          "143507.611000",
          "143509.611000",
          "143511.611000",
          "143513.612000",
          "143515.612000",
          "143517.612000",
          "143519.612000",
          "143521.612000",
          "143523.612000",
          "143525.611000",
          "143527.611000",
          "143529.611000",
          "143531.612000",
          "143533.612000",
          "143535.612000",
          "143537.612000",
          "143539.612000",
          "143541.612000",
          "143543.611000",
          "143545.611000",
          "143547.612000",
          "143549.612000",
          "143551.612000",
          "143553.612000",
          "143555.612000",
          "143557.612000",
          "143559.612000",
          "143601.611000",
          "143603.611000",
          "143605.612000",
          "143607.612000",
          "143609.612000",
          "143611.612000",
          "143613.612000",
          "143615.612000",
          "143617.611000",
          "143619.611000",
          "143621.611000",
          "143623.612000",
          "143625.612000",
          "143627.612000",
          "143629.612000",
          "143631.612000",
          "143633.612000",
          "143635.611000",
          "143637.611000",
          "143639.611000",
          "143641.612000",
          "143643.612000",
          "143645.612000",
          "143647.612000",
          "143649.612000",
          "143651.612000",
          "143653.611000",
          "143655.611000",
          "143657.612000",
          "143659.612000",
          "143701.612000",
          "143703.612000",
          "143705.612000",
          "143707.612000",
          "143709.612000",
          "143711.611000",
          "143713.280000"
        ],
        "InstanceCreationTime": [
          "143215.615000",
          "143217.612000",
          "143219.612000",
          "143221.612000",
          "143223.612000",
          "143225.612000",
          "143227.612000",
          "143229.612000",
          "143231.611000",
          "143233.611000",
          "143235.612000",
          "143237.612000",
          "143239.612000",
          "143241.612000",
          "143243.612000",
          "143245.612000",
          "143247.611000",
          "143249.611000",
          "143251.611000",
          "143253.612000",
          "143255.612000",
          "143257.629000",
          "143259.612000",
          "143301.612000",
          "143303.612000",
          "143305.611000",
          "143307.611000",
          "143309.611000",
          "143311.612000",
          "143313.612000",
          "143315.612000",
          "143317.612000",
          "143319.612000",
          "143321.612000",
          "143323.611000",
          "143325.611000",
          "143327.612000",
          "143329.612000",
          "143331.612000",
          "143333.612000",
          "143335.612000",
          "143337.612000",
          "143339.612000",
          "143341.611000",
          "143343.611000",
          "143345.612000",
          "143347.612000",
          "143349.612000",
          "143351.612000",
          "143353.612000",
          "143355.612000",
          "143357.611000",
          "143359.611000",
          "143401.611000",
          "143403.612000",
          "143405.612000",
          "143407.612000",
          "143409.612000",
          "143411.612000",
          "143413.612000",
          "143415.611000",
          "143417.611000",
          "143419.611000",
          "143421.612000",
          "143423.612000",
          "143425.612000",
          "143427.612000",
          "143429.612000",
          "143431.612000",
          "143433.611000",
          "143435.611000",
          "143437.612000",
          "143439.612000",
          "143441.612000",
          "143443.612000",
          "143445.612000",
          "143447.612000",
          "143449.612000",
          "143451.611000",
          "143453.611000",
          "143455.612000",
          "143457.612000",
          "143459.612000",
          "143501.612000",
          "143503.612000",
          "143505.612000",
          "143507.611000",
          "143509.611000",
          "143511.611000",
          "143513.612000",
          "143515.612000",
          "143517.612000",
          "143519.612000",
          "143521.612000",
          "143523.612000",
          "143525.611000",
          "143527.611000",
          "143529.611000",
          "143531.612000",
          "143533.612000",
          "143535.612000",
          "143537.612000",
          "143539.612000",
          "143541.612000",
          "143543.611000",
          "143545.611000",
          "143547.612000",
          "143549.612000",
          "143551.612000",
          "143553.612000",
          "143555.612000",
          "143557.612000",
          "143559.612000",
          "143601.611000",
          "143603.611000",
          "143605.612000",
          "143607.612000",
          "143609.612000",
          "143611.612000",
          "143613.612000",
          "143615.612000",
          "143617.611000",
          "143619.611000",
          "143621.611000",
          "143623.612000",
          "143625.612000",
          "143627.612000",
          "143629.612000",
          "143631.612000",
          "143633.612000",
          "143635.611000",
          "143637.611000",
          "143639.611000",
          "143641.612000",
          "143643.612000",
          "143645.612000",
          "143647.612000",
          "143649.612000",
          "143651.612000",
          "143653.611000",
          "143655.611000",
          "143657.612000",
          "143659.612000",
          "143701.612000",
          "143703.612000",
          "143705.612000",
          "143707.612000",
          "143709.612000",
          "143711.611000",
          "143713.280000"
        ],
        "InstanceNumber": [
          1,
          2,
          3,
          4,
          5,
          6,
          7,
          8,
          9,
          10,
          11,
          12,
          13,
          14,
          15,
          16,
          17,
          18,
          19,
          20,
          21,
          22,
          23,
          24,
          25,
          26,
          27,
          28,
          29,
          30,
          31,
          32,
          33,
          34,
          35,
          36,
          37,
          38,
          39,
          40,
          41,
          42,
          43,
          44,
          45,
          46,
          47,
          48,
          49,
          50,
          51,
          52,
          53,
          54,
          55,
          56,
          57,
          58,
          59,
          60,
          61,
          62,
          63,
          64,
          65,
          66,
          67,
          68,
          69,
          70,
          71,
          72,
          73,
          74,
          75,
          76,
          77,
          78,
          79,
          80,
          81,
          82,
          83,
          84,
          85,
          86,
          87,
          88,
          89,
          90,
          91,
          92,
          93,
          94,
          95,
          96,
          97,
          98,
          99,
          100,
          101,
          102,
          103,
          104,
          105,
          106,
          107,
          108,
          109,
          110,
          111,
          112,
          113,
          114,
          115,
          116,
          117,
          118,
          119,
          120,
          121,
          122,
          123,
          124,
          125,
          126,
          127,
          128,
          129,
          130,
          131,
          132,
          133,
          134,
          135,
          136,
          137,
          138,
          139,
          140,
          141,
          142,
          143,
          144,
          145,
          146,
          147,
          148,
          149,
          150
        ],
        "LargestImagePixelValue": [
          27434,
          26571,
          25608,
          25686,
          25928,
          26199,
          25814,
          26025,
          26111,
          26187,
          26064,
          26059,
          25891,
          25812,
          25298,
          25201,
          25426,
          25657,
          25931,
          25813,
          25599,
          25477,
          25359,
          25027,
          25111,
          25284,
          25548,
          25304,
          25027,
          24847,
          25051,
          25083,
          25179,
          25006,
          25139,
          25468,
          25106,
          25143,
          25274,
          25655,
          25568,
          25580,
          25358,
          25258,
          25537,
          25826,
          26003,
          25853,
          25567,
          25673,
          25237,
          25317,
          25350,
          25325,
          24841,
          24701,
          24967,
          25255,
          25234,
          25297,
          25475,
          25252,
          25040,
          24787,
          24557,
          24947,
          25048,
          24953,
          24882,
          25008,
          25394,
          25454,
          25348,
          25297,
          25325,
          25464,
          25123,
          24828,
          24718,
          25144,
          25196,
          25397,
          25579,
          25632,
          25801,
          25561,
          25479,
          25391,
          25448,
          25481,
          25810,
          25645,
          25509,
          25223,
          25286,
          25231,
          25162,
          24590,
          24898,
          24962,
          25157,
          25252,
          25591,
          25565,
          25583,
          25186,
          24757,
          24649,
          24908,
          25162,
          25135,
          25057,
          25257,
          25171,
          25539,
          25090,
          25277,
          24859,
          24219,
          24544,
          24577,
          24465,
          24616,
          24473,
          24790,
          24937,
          25241,
          25200,
          25402,
          25442,
          25268,
          25069,
          25108,
          25663,
          25781,
          25677,
          25163,
          24869,
          25137,
          25459,
          25675,
          25569,
          25665,
          24929,
          25053,
          25196,
          25207,
          24991,
          25048,
          25432
        ],
        "TriggerTime": [
          11730.0,
          13730.0,
          15730.0,
          17730.0,
          19730.0,
          21730.0,
          23730.0,
          25730.0,
          27730.0,
          29730.0,
          31730.0,
          33730.0,
          35730.0,
          37730.0,
          39730.0,
          41730.0,
          43730.0,
          45730.0,
          47730.0,
          49730.0,
          51730.0,
          53730.0,
          55730.0,
          57730.0,
          59730.0,
          61730.0,
          63730.0,
          65730.0,
          67730.0,
          69730.0,
          71730.0,
          73730.0,
          75730.0,
          77730.0,
          79730.0,
          81730.0,
          83730.0,
          85730.0,
          87730.0,
          89730.0,
          91730.0,
          93730.0,
          95730.0,
          97730.0,
          99730.0,
          101730.0,
          103730.0,
          105730.0,
          107730.0,
          109730.0,
          111730.0,
          113730.0,
          115730.0,
          117730.0,
          119730.0,
          121730.0,
          123730.0,
          125730.0,
          127730.0,
          129730.0,
          131730.0,
          133730.0,
          135730.0,
          137730.0,
          139730.0,
          141730.0,
          143730.0,
          145730.0,
          147730.0,
          149730.0,
          151730.0,
          153730.0,
          155730.0,
          157730.0,
          159730.0,
          161730.0,
          163730.0,
          165730.0,
          167730.0,
          169730.0,
          171730.0,
          173730.0,
          175730.0,
          177730.0,
          179730.0,
          181730.0,
          183730.0,
          185730.0,
          187730.0,
          189730.0,
          191730.0,
          193730.0,
          195730.0,
          197730.0,
          199730.0,
          201730.0,
          203730.0,
          205730.0,
          207730.0,
          209730.0,
          211730.0,
          213730.0,
          215730.0,
          217730.0,
          219730.0,
          221730.0,
          223730.0,
          225730.0,
          227730.0,
          229730.0,
          231730.0,
          233730.0,
          235730.0,
          237730.0,
          239730.0,
          241730.0,
          243730.0,
          245730.0,
          247730.0,
          249730.0,
          251730.0,
          253730.0,
          255730.0,
          257730.0,
          259730.0,
          261730.0,
          263730.0,
          265730.0,
          267730.0,
          269730.0,
          271730.0,
          273730.0,
          275730.0,
          277730.0,
          279730.0,
          281730.0,
          283730.0,
          285730.0,
          287730.0,
          289730.0,
          291730.0,
          293730.0,
          295730.0,
          297730.0,
          299730.0,
          301730.0,
          303730.0,
          305730.0,
          307730.0,
          309730.0
        ],
        "WindowCenter": [
          8690.0,
          8673.0,
          8679.0,
          8668.0,
          8676.0,
          8684.0,
          8684.0,
          8685.0,
          8692.0,
          8692.0,
          8695.0,
          8707.0,
          8707.0,
          8713.0,
          8683.0,
          8669.0,
          8658.0,
          8666.0,
          8684.0,
          8695.0,
          8689.0,
          8687.0,
          8679.0,
          8682.0,
          8692.0,
          8690.0,
          8689.0,
          8679.0,
          8654.0,
          8654.0,
          8664.0,
          8673.0,
          8691.0,
          8702.0,
          8702.0,
          8690.0,
          8672.0,
          8681.0,
          8698.0,
          8708.0,
          8706.0,
          8688.0,
          8682.0,
          8682.0,
          8708.0,
          8726.0,
          8718.0,
          8708.0,
          8709.0,
          8727.0,
          8713.0,
          8693.0,
          8680.0,
          8690.0,
          8702.0,
          8697.0,
          8697.0,
          8704.0,
          8704.0,
          8702.0,
          8709.0,
          8702.0,
          8696.0,
          8696.0,
          8688.0,
          8677.0,
          8685.0,
          8689.0,
          8689.0,
          8679.0,
          8682.0,
          8691.0,
          8683.0,
          8680.0,
          8675.0,
          8689.0,
          8674.0,
          8663.0,
          8658.0,
          8682.0,
          8694.0,
          8711.0,
          8709.0,
          8698.0,
          8688.0,
          8689.0,
          8708.0,
          8702.0,
          8716.0,
          8726.0,
          8718.0,
          8699.0,
          8690.0,
          8693.0,
          8724.0,
          8732.0,
          8703.0,
          8669.0,
          8674.0,
          8674.0,
          8673.0,
          8685.0,
          8709.0,
          8710.0,
          8701.0,
          8681.0,
          8676.0,
          8680.0,
          8685.0,
          8684.0,
          8692.0,
          8686.0,
          8686.0,
          8685.0,
          8709.0,
          8711.0,
          8726.0,
          8718.0,
          8676.0,
          8662.0,
          8663.0,
          8665.0,
          8673.0,
          8677.0,
          8683.0,
          8689.0,
          8697.0,
          8714.0,
          8733.0,
          8732.0,
          8706.0,
          8688.0,
          8690.0,
          8731.0,
          8743.0,
          8722.0,
          8694.0,
          8693.0,
          8701.0,
          8718.0,
          8737.0,
          8731.0,
          8714.0,
          8698.0,
          8707.0,
          8706.0,
