{
  "aor": 0.004890533333333333,
  "aqi": 0.0105656926,
  "bids_meta": {
    "ConversionSoftware": "dcm2niix",
    "ConversionSoftwareVersion": "v1.0.20170207",
    "EchoTime": 0.0302,
    "EffectiveEchoSpacing": 0.000640002,
    "FlipAngle": 90,
    "ImageType": [
      "ORIGINAL",
      "PRIMARY",
      "M",
      "MB",
      "ND",
      "MOSAIC"
    ],
    "MagneticFieldStrength": 3,
    "Manufacturer": "Siemens",
    "ManufacturersModelName": "Prisma",
    "PhaseEncodingDirection": "j-",
    "ProcedureStepDescription": "CAMRIS_CHOP",
    "ProtocolName": "BOLD_resting1",
    "RepetitionTime": 2,
    "SliceTiming": [
      0,
      0.08,
      0.1575,
      0.2375,
      0.3175,
      0.395,
      0.475,
      0.555,
      0.6325,
      0.7125,
      0.7925,
      0.87,
      0.95,
      1.03,
      1.1075,
      1.1875,
      1.2675,
      1.345,
      1.425,
      1.505,
      1.5825,
      1.6625,
      1.7425,
      1.82,
      1.9,
      0,
      0.08,
      0.1575,
      0.2375,
      0.3175,
      0.395,
      0.475,
      0.555,
      0.6325,
      0.7125,
      0.7925,
      0.87,
      0.95,
      1.03,
      1.1075,
      1.1875,
      1.2675,
      1.345,
      1.425,
      1.505,
      1.5825,
      1.6625,
      1.7425,
      1.82,
      1.9,
      0,
      0.08,
      0.1575,
      0.2375,
      0.3175,
      0.395,
      0.475,
      0.555,
      0.6325,
      0.7125,
      0.7925,
      0.87,
      0.95,
      1.03,
      1.1075,
      1.1875,
      1.2675,
      1.345,
      1.425,
      1.505,
      1.5825,
      1.6625,
      1.7425,
      1.82,
      1.9
    ],
    "TaskName": "piper",
    "dataset": "ds004228",
    "dcmmeta_affine": [
      [
        -2.0,
        0.0,
        0.0,
        96.0
      ],
      [
        0.0,
        2.0,
        0.0,
        -67.38400268554688
      ],
      [
        0.0,
        0.0,
        2.0,
        -43.46979904174805
      ],
      [
        0.0,
        0.0,
        0.0,
        1.0
      ]
    ],
    "dcmmeta_reorient_transform": [
      [
        0.0,
        -1.0,
        0.0,
        95.0
      ],
      [
        1.0,
        0.0,
        0.0,
        0.0
      ],
      [
        0.0,
        0.0,
        1.0,
        0.0
      ],
      [
        0.0,
        0.0,
        0.0,
        1.0
      ]
    ],
    "dcmmeta_shape": [
      96,
      96,
      75,
      150
    ],
    "dcmmeta_slice_dim": 2,
    "dcmmeta_version": 0.6,
    "global": {
      "const": {
        "AcquisitionMatrix": [
          96,
          0,
          0,
          96
        ],
        "AngioFlag": "N",
        "BitsAllocated": 16,
        "BitsStored": 16,
        "BodyPartExamined": "BRAIN",
        "CardiacNumberOfImages": 1,
        "Columns": 864,
        "EchoNumbers": 1,
        "EchoTime": 30.2,
        "EchoTrainLength": 84,
        "FlipAngle": 90.0,
        "HighBit": 15,
        "ImageOrientationPatient": [
          1.0,
          0.0,
          0.0,
          0.0,
          1.0,
          0.0
        ],
        "ImagePositionPatient": [
          -864.0,
          -890.616,
          -43.4698
        ],
        "ImageType": [
          "ORIGINAL",
          "PRIMARY",
          "M",
          "MB",
          "ND",
          "MOSAIC"
        ],
        "ImagedNucleus": "1H",
        "ImagingFrequency": 123.255,
        "InPlanePhaseEncodingDirection": "COL",
        "MRAcquisitionType": "2D",
        "MagneticFieldStrength": 3.0,
        "Manufacturer": "SIEMENS",
        "ManufacturerModelName": "Prisma",
        "Modality": "MR",
        "NominalInterval": 0,
        "NumberOfAverages": 1.0,
        "NumberOfFrames": 1,
        "NumberOfPhaseEncodingSteps": 84,
        "PercentPhaseFieldOfView": 100.0,
        "PercentSampling": 100.0,
        "PerformedProcedureStepStartTime": "150518.627000",
        "PhotometricInterpretation": "MONOCHROME2",
        "PixelBandwidth": 1860.0,
        "PixelRepresentation": 0,
        "PixelSpacing": [
          2.0,
          2.0
        ],
        "ProtocolName": "BOLD_resting1",
        "RepetitionTime": 2000.0,
        "Rows": 864,
        "SAR": 0.285315,
        "SamplesPerPixel": 1,
        "ScanOptions": [
          "PFP",
          "FS",
          "EXT"
        ],
        "ScanningSequence": "EP",
        "SequenceName": "epfid2d1_96",
        "SequenceVariant": [
          "SK",
          "SS"
        ],
        "SeriesDescription": "BOLD_resting1",
        "SeriesNumber": 19,
        "SeriesTime": "154754.220000",
        "SliceLocation": -43.4698,
        "SliceThickness": 2.0,
        "SmallestImagePixelValue": 0,
        "SoftwareVersions": "syngo MR E11",
        "SpacingBetweenSlices": 2.0,
        "SpecificCharacterSet": "ISO_IR 100",
        "StudyID": "1",
        "StudyTime": "150518.509000",
        "TransmitCoilName": "Body",
        "VariableFlipAngleFlag": "N",
        "WindowCenterWidthExplanation": "Algo1",
        "dBdt": 0.0
      },
      "slices": {}
    },
    "modality": "bold",
    "run_id": 1,
    "session_id": "01",
    "subject_id": "60",
    "task_id": "piper",
    "time": {
      "samples": {
        "AcquisitionNumber": [
          1,
          2,
          3,
          4,
          5,
          6,
          7,
          8,
          9,
          10,
          11,
          12,
          13,
          14,
          15,
          16,
          17,
          18,
          19,
          20,
          21,
          22,
          23,
          24,
          25,
          26,
          27,
          28,
          29,
          30,
          31,
          32,
          33,
          34,
          35,
          36,
          37,
          38,
          39,
          40,
          41,
          42,
          43,
          44,
          45,
          46,
          47,
          48,
          49,
          50,
          51,
          52,
          53,
          54,
          55,
          56,
          57,
          58,
          59,
          60,
          61,
          62,
          63,
          64,
          65,
          66,
          67,
          68,
          69,
          70,
          71,
          72,
          73,
          74,
          75,
          76,
          77,
          78,
          79,
          80,
          81,
          82,
          83,
          84,
          85,
          86,
          87,
          88,
          89,
          90,
          91,
          92,
          93,
          94,
          95,
          96,
          97,
          98,
          99,
          100,
          101,
          102,
          103,
          104,
          105,
          106,
          107,
          108,
          109,
          110,
          111,
          112,
          113,
          114,
          115,
          116,
          117,
          118,
          119,
          120,
          121,
          122,
          123,
          124,
          125,
          126,
          127,
          128,
          129,
          130,
          131,
          132,
          133,
          134,
          135,
          136,
          137,
          138,
          139,
          140,
          141,
          142,
          143,
          144,
          145,
          146,
          147,
          148,
          149,
          150
        ],
        "AcquisitionTime": [
          "154751.312500",
          "154753.312500",
          "154755.312500",
          "154757.312500",
          "154759.312500",
          "154801.312500",
          "154803.312500",
          "154805.312500",
          "154807.312500",
          "154809.312500",
          "154811.312500",
          "154813.312500",
          "154815.312500",
          "154817.312500",
          "154819.312500",
          "154821.312500",
          "154823.312500",
          "154825.312500",
          "154827.312500",
          "154829.312500",
          "154831.312500",
          "154833.312500",
          "154835.312500",
          "154837.312500",
          "154839.312500",
          "154841.312500",
          "154843.312500",
          "154845.312500",
          "154847.312500",
          "154849.312500",
          "154851.312500",
          "154853.312500",
          "154855.312500",
          "154857.312500",
          "154859.312500",
          "154901.312500",
          "154903.312500",
          "154905.312500",
          "154907.312500",
          "154909.312500",
          "154911.312500",
          "154913.312500",
          "154915.312500",
          "154917.312500",
          "154919.312500",
          "154921.312500",
          "154923.312500",
          "154925.312500",
          "154927.312500",
          "154929.312500",
          "154931.312500",
          "154933.312500",
          "154935.312500",
          "154937.312500",
          "154939.312500",
          "154941.312500",
          "154943.312500",
          "154945.312500",
          "154947.312500",
          "154949.312500",
          "154951.312500",
          "154953.312500",
          "154955.312500",
          "154957.312500",
          "154959.312500",
          "155001.312500",
          "155003.312500",
          "155005.312500",
          "155007.312500",
          "155009.312500",
          "155011.312500",
          "155013.312500",
          "155015.312500",
          "155017.312500",
          "155019.312500",
          "155021.312500",
          "155023.312500",
          "155025.312500",
          "155027.312500",
          "155029.312500",
          "155031.312500",
          "155033.312500",
          "155035.312500",
          "155037.312500",
          "155039.312500",
          "155041.312500",
          "155043.312500",
          "155045.312500",
          "155047.312500",
          "155049.312500",
          "155051.312500",
          "155053.312500",
          "155055.312500",
          "155057.312500",
          "155059.312500",
          "155101.312500",
          "155103.312500",
          "155105.312500",
          "155107.312500",
          "155109.312500",
          "155111.312500",
          "155113.312500",
          "155115.312500",
          "155117.312500",
          "155119.312500",
          "155121.312500",
          "155123.312500",
          "155125.312500",
          "155127.312500",
          "155129.312500",
          "155131.312500",
          "155133.312500",
          "155135.312500",
          "155137.312500",
          "155139.312500",
          "155141.312500",
          "155143.312500",
          "155145.312500",
          "155147.312500",
          "155149.312500",
          "155151.312500",
          "155153.312500",
          "155155.312500",
          "155157.312500",
          "155159.312500",
          "155201.312500",
          "155203.312500",
          "155205.312500",
          "155207.312500",
          "155209.312500",
          "155211.312500",
          "155213.312500",
          "155215.312500",
          "155217.312500",
          "155219.312500",
          "155221.312500",
          "155223.312500",
          "155225.312500",
          "155227.312500",
          "155229.312500",
          "155231.312500",
          "155233.312500",
          "155235.312500",
          "155237.312500",
          "155239.312500",
          "155241.312500",
          "155243.312500",
          "155245.312500",
          "155247.312500",
          "155249.312500"
        ],
        "ContentTime": [
          "154754.224000",
          "154756.218000",
          "154758.218000",
          "154800.218000",
          "154802.218000",
          "154804.218000",
          "154806.219000",
          "154808.219000",
          "154810.219000",
          "154812.219000",
          "154814.218000",
          "154816.218000",
          "154818.218000",
          "154820.218000",
          "154822.218000",
          "154824.219000",
          "154826.219000",
          "154828.219000",
          "154830.218000",
          "154832.218000",
          "154834.218000",
          "154836.218000",
          "154838.218000",
          "154840.218000",
          "154842.219000",
          "154844.219000",
          "154846.219000",
          "154848.218000",
          "154850.218000",
          "154852.218000",
          "154854.218000",
          "154856.218000",
          "154858.219000",
          "154900.219000",
          "154902.219000",
          "154904.219000",
          "154906.218000",
          "154908.218000",
          "154910.218000",
          "154912.218000",
          "154914.218000",
          "154916.219000",
          "154918.219000",
          "154920.219000",
          "154922.219000",
          "154924.218000",
          "154926.218000",
          "154928.218000",
          "154930.218000",
          "154932.218000",
          "154934.219000",
          "154936.219000",
          "154938.219000",
          "154940.218000",
          "154942.218000",
          "154944.218000",
          "154946.218000",
          "154948.218000",
          "154950.218000",
          "154952.219000",
          "154954.219000",
          "154956.219000",
          "154958.218000",
          "155000.218000",
          "155002.218000",
          "155004.218000",
          "155006.218000",
          "155008.219000",
          "155010.219000",
          "155012.219000",
          "155014.219000",
          "155016.218000",
          "155018.218000",
          "155020.218000",
          "155022.218000",
          "155024.218000",
          "155026.219000",
          "155028.219000",
          "155030.219000",
          "155032.219000",
          "155034.218000",
          "155036.218000",
          "155038.218000",
          "155040.218000",
          "155042.218000",
          "155044.219000",
          "155046.219000",
          "155048.219000",
          "155050.218000",
          "155052.218000",
          "155054.218000",
          "155056.218000",
          "155058.218000",
          "155100.218000",
          "155102.219000",
          "155104.226000",
          "155106.219000",
          "155108.218000",
          "155110.218000",
          "155112.218000",
          "155114.218000",
          "155116.218000",
          "155118.219000",
          "155120.219000",
          "155122.219000",
          "155124.219000",
          "155126.218000",
          "155128.218000",
          "155130.218000",
          "155132.218000",
          "155134.218000",
          "155136.219000",
          "155138.219000",
          "155140.219000",
          "155142.219000",
          "155144.218000",
          "155146.218000",
          "155148.218000",
          "155150.218000",
          "155152.218000",
          "155154.219000",
          "155156.219000",
          "155158.219000",
          "155200.218000",
          "155202.218000",
          "155204.218000",
          "155206.218000",
          "155208.218000",
          "155210.218000",
          "155212.219000",
          "155214.219000",
          "155216.219000",
          "155218.218000",
          "155220.218000",
          "155222.218000",
          "155224.218000",
          "155226.218000",
          "155228.219000",
          "155230.219000",
          "155232.219000",
          "155234.219000",
          "155236.218000",
          "155238.218000",
          "155240.218000",
          "155242.218000",
          "155244.218000",
          "155246.219000",
          "155248.219000",
          "155250.219000",
          "155252.178000"
        ],
        "InstanceCreationTime": [
          "154754.224000",
          "154756.218000",
          "154758.218000",
          "154800.218000",
          "154802.218000",
          "154804.218000",
          "154806.219000",
          "154808.219000",
          "154810.219000",
          "154812.219000",
          "154814.218000",
          "154816.218000",
          "154818.218000",
          "154820.218000",
          "154822.218000",
          "154824.219000",
          "154826.219000",
          "154828.219000",
          "154830.218000",
          "154832.218000",
          "154834.218000",
          "154836.218000",
          "154838.218000",
          "154840.218000",
          "154842.219000",
          "154844.219000",
          "154846.219000",
          "154848.218000",
          "154850.218000",
          "154852.218000",
          "154854.218000",
          "154856.218000",
          "154858.219000",
          "154900.219000",
          "154902.219000",
          "154904.219000",
          "154906.218000",
          "154908.218000",
          "154910.218000",
          "154912.218000",
          "154914.218000",
          "154916.219000",
          "154918.219000",
          "154920.219000",
          "154922.219000",
          "154924.218000",
          "154926.218000",
          "154928.218000",
          "154930.218000",
          "154932.218000",
          "154934.219000",
          "154936.219000",
          "154938.219000",
          "154940.218000",
          "154942.218000",
          "154944.218000",
          "154946.218000",
          "154948.218000",
          "154950.218000",
          "154952.219000",
          "154954.219000",
          "154956.219000",
          "154958.218000",
          "155000.218000",
          "155002.218000",
          "155004.218000",
          "155006.218000",
          "155008.219000",
          "155010.219000",
          "155012.219000",
          "155014.219000",
          "155016.218000",
          "155018.218000",
          "155020.218000",
          "155022.218000",
          "155024.218000",
          "155026.219000",
          "155028.219000",
          "155030.219000",
          "155032.219000",
          "155034.218000",
          "155036.218000",
          "155038.218000",
          "155040.218000",
          "155042.218000",
          "155044.219000",
          "155046.219000",
          "155048.219000",
          "155050.218000",
          "155052.218000",
          "155054.218000",
          "155056.218000",
          "155058.218000",
          "155100.218000",
          "155102.219000",
          "155104.226000",
          "155106.219000",
          "155108.218000",
          "155110.218000",
          "155112.218000",
          "155114.218000",
          "155116.218000",
          "155118.219000",
          "155120.219000",
          "155122.219000",
          "155124.219000",
          "155126.218000",
          "155128.218000",
          "155130.218000",
          "155132.218000",
          "155134.218000",
          "155136.219000",
          "155138.219000",
          "155140.219000",
          "155142.219000",
          "155144.218000",
          "155146.218000",
          "155148.218000",
          "155150.218000",
          "155152.218000",
          "155154.219000",
          "155156.219000",
          "155158.219000",
          "155200.218000",
          "155202.218000",
          "155204.218000",
          "155206.218000",
          "155208.218000",
          "155210.218000",
          "155212.219000",
          "155214.219000",
          "155216.219000",
          "155218.218000",
          "155220.218000",
          "155222.218000",
          "155224.218000",
          "155226.218000",
          "155228.219000",
          "155230.219000",
          "155232.219000",
          "155234.219000",
          "155236.218000",
          "155238.218000",
          "155240.218000",
          "155242.218000",
          "155244.218000",
          "155246.219000",
          "155248.219000",
          "155250.219000",
          "155252.178000"
        ],
        "InstanceNumber": [
          1,
          2,
          3,
          4,
          5,
          6,
          7,
          8,
          9,
          10,
          11,
          12,
          13,
          14,
          15,
          16,
          17,
          18,
          19,
          20,
          21,
          22,
          23,
          24,
          25,
          26,
          27,
          28,
          29,
          30,
          31,
          32,
          33,
          34,
          35,
          36,
          37,
          38,
          39,
          40,
          41,
          42,
          43,
          44,
          45,
          46,
          47,
          48,
          49,
          50,
          51,
          52,
          53,
          54,
          55,
          56,
          57,
          58,
          59,
          60,
          61,
          62,
          63,
          64,
          65,
          66,
          67,
          68,
          69,
          70,
          71,
          72,
          73,
          74,
          75,
          76,
          77,
          78,
          79,
          80,
          81,
          82,
          83,
          84,
          85,
          86,
          87,
          88,
          89,
          90,
          91,
          92,
          93,
          94,
          95,
          96,
          97,
          98,
          99,
          100,
          101,
          102,
          103,
          104,
          105,
          106,
          107,
          108,
          109,
          110,
          111,
          112,
          113,
          114,
          115,
          116,
          117,
          118,
          119,
          120,
          121,
          122,
          123,
          124,
          125,
          126,
          127,
          128,
          129,
          130,
          131,
          132,
          133,
          134,
          135,
          136,
          137,
          138,
          139,
          140,
          141,
          142,
          143,
          144,
          145,
          146,
          147,
          148,
          149,
          150
        ],
        "LargestImagePixelValue": [
          26581,
          26062,
          26360,
          28442,
          29002,
          27531,
          28450,
          29293,
          27617,
          26448,
          28827,
          29373,
          30132,
          28278,
          26930,
          27116,
          27731,
          27964,
          27496,
          28866,
          28212,
          27249,
          27725,
          27939,
          26225,
          26935,
          27457,
          27201,
          27270,
          28310,
          27539,
          27452,
          28554,
          27734,
          27296,
          26645,
          27834,
          28460,
          27652,
          27742,
          29123,
          28319,
          27876,
          27271,
          27081,
          26683,
          26048,
          27234,
          26228,
          27781,
          27468,
          28655,
          29239,
          28868,
          27582,
          26624,
          25865,
          26798,
          27033,
          26629,
          27644,
          27654,
          26138,
          27064,
          25325,
          24804,
          25405,
          25664,
          26317,
          27176,
          25376,
          26512,
          26029,
          26614,
          27470,
          27065,
          25852,
          27071,
          27687,
          26381,
          26664,
          26695,
          26042,
          25736,
          26719,
          26005,
          26239,
          26588,
          26202,
          25013,
          25149,
          25509,
          25760,
          27277,
          28837,
          28356,
          26939,
          25284,
          25501,
          25657,
          26202,
          26297,
          27372,
          26579,
          25944,
          26302,
          27570,
          26430,
          25946,
          27630,
          27981,
          26630,
          26125,
          27441,
          26326,
          26710,
          26896,
          26826,
          26704,
          26416,
          26674,
          26715,
          28398,
          27410,
          27219,
          26440,
          26542,
          25933,
          26503,
          26584,
          26940,
          26486,
          26604,
          27061,
          25728,
          26601,
          26474,
          26741,
          26621,
          26141,
          26778,
          26363,
          26435,
          26671,
          26393,
          26944,
          27189,
          26413,
          26482,
          26594
        ],
        "TriggerTime": [
          11655.0,
          13655.0,
          15655.0,
          17655.0,
          19655.0,
          21655.0,
          23655.0,
          25655.0,
          27655.0,
          29655.0,
          31655.0,
          33655.0,
          35655.0,
          37655.0,
          39655.0,
          41655.0,
          43655.0,
          45655.0,
          47655.0,
          49655.0,
          51655.0,
          53655.0,
          55655.0,
          57655.0,
          59655.0,
          61655.0,
          63655.0,
          65655.0,
          67655.0,
          69655.0,
          71655.0,
          73655.0,
          75655.0,
          77655.0,
          79655.0,
          81655.0,
          83655.0,
          85655.0,
          87655.0,
          89655.0,
          91655.0,
          93655.0,
          95655.0,
          97655.0,
          99655.0,
          101655.0,
          103655.0,
          105655.0,
          107655.0,
          109655.0,
          111655.0,
          113655.0,
          115655.0,
          117655.0,
          119655.0,
          121655.0,
          123655.0,
          125655.0,
          127655.0,
          129655.0,
          131655.0,
          133655.0,
          135655.0,
          137655.0,
          139655.0,
          141655.0,
          143655.0,
          145655.0,
          147655.0,
          149655.0,
          151655.0,
          153655.0,
          155655.0,
          157655.0,
          159655.0,
          161655.0,
          163655.0,
          165655.0,
          167655.0,
          169655.0,
          171655.0,
          173655.0,
          175655.0,
          177655.0,
          179655.0,
          181655.0,
          183655.0,
          185655.0,
          187655.0,
          189655.0,
          191655.0,
          193655.0,
          195655.0,
          197655.0,
          199655.0,
          201655.0,
          203655.0,
          205655.0,
          207655.0,
          209655.0,
          211655.0,
          213655.0,
          215655.0,
          217655.0,
          219655.0,
          221655.0,
          223655.0,
          225655.0,
          227655.0,
          229655.0,
          231655.0,
          233655.0,
          235655.0,
          237655.0,
          239655.0,
          241655.0,
          243655.0,
          245655.0,
          247655.0,
          249655.0,
          251655.0,
          253655.0,
          255655.0,
          257655.0,
          259655.0,
          261655.0,
          263655.0,
          265655.0,
          267655.0,
          269655.0,
          271655.0,
          273655.0,
          275655.0,
          277655.0,
          279655.0,
          281655.0,
          283655.0,
          285655.0,
          287655.0,
          289655.0,
          291655.0,
          293655.0,
          295655.0,
          297655.0,
          299655.0,
          301655.0,
          303655.0,
          305655.0,
          307655.0,
          309655.0
        ],
        "WindowCenter": [
          8423.0,
          8385.0,
          8413.0,
          8472.0,
          8459.0,
          8457.0,
          8513.0,
          8488.0,
          8457.0,
          8453.0,
          8480.0,
          8519.0,
          8515.0,
          8478.0,
          8402.0,
          8425.0,
          8453.0,
          8424.0,
          8467.0,
          8493.0,
          8446.0,
          8440.0,
          8478.0,
          8446.0,
          8437.0,
          8439.0,
          8427.0,
          8440.0,
          8447.0,
          8493.0,
          8511.0,
          8481.0,
          8462.0,
          8456.0,
          8429.0,
          8435.0,
          8477.0,
          8463.0,
          8450.0,
          8487.0,
          8504.0,
          8467.0,
          8476.0,
          8460.0,
          8431.0,
          8435.0,
          8427.0,
          8438.0,
          8435.0,
          8435.0,
          8481.0,
          8513.0,
          8513.0,
          8506.0,
          8442.0,
          8392.0,
          8407.0,
          8463.0,
          8425.0,
          8424.0,
          8440.0,
          8270.0,
          8310.0,
          8308.0,
          8227.0,
          8207.0,
          8233.0,
          8308.0,
          8228.0,
          8321.0,
          8261.0,
          8295.0,
          8289.0,
          8305.0,
          8353.0,
          8377.0,
          8362.0,
          8378.0,
          8417.0,
          8375.0,
          8376.0,
          8318.0,
          8275.0,
          8193.0,
          8206.0,
          8164.0,
          8150.0,
          8196.0,
          8216.0,
          8227.0,
          8212.0,
          8278.0,
          8284.0,
          8342.0,
          8300.0,
          8302.0,
          8311.0,
          8279.0,
          8307.0,
          8297.0,
          8315.0,
          8326.0,
          8318.0,
          8325.0,
          8346.0,
          8349.0,
          8341.0,
          8367.0,
          8344.0,
          8373.0,
          8392.0,
          8372.0,
          8352.0,
          8356.0,
          8352.0,
          8391.0,
          8378.0,
          8367.0,
          8367.0,
          8375.0,
          8372.0,
          8362.0,
          8404.0,
          8400.0,
          8392.0,
          8387.0,
          8335.0,
          8345.0,
          8383.0,
          8376.0,
          8384.0,
          8384.0,
          8385.0,
          8370.0,
          8360.0,
          8372.0,
          8360.0,
          8371.0,
          8382.0,
          8363.0,
          8390.0,
          8394.0,
          8373.0,
          8382.0,
          8397.0,
          8391.0,
