{
  "aor": 0.0030492617449664433,
  "aqi": 0.0061449735570469795,
  "bids_meta": {
    "ConversionSoftware": "dcm2niix",
    "ConversionSoftwareVersion": "v1.0.20170207",
    "EchoTime": 0.0302,
    "EffectiveEchoSpacing": 0.000640002,
    "FlipAngle": 90,
    "ImageType": [
      "ORIGINAL",
      "PRIMARY",
      "M",
      "MB",
      "ND",
      "MOSAIC"
    ],
    "MagneticFieldStrength": 3,
    "Manufacturer": "Siemens",
    "ManufacturersModelName": "Prisma",
    "PhaseEncodingDirection": "j-",
    "ProcedureStepDescription": "CAMRIS_CHOP",
    "ProtocolName": "BOLD_resting1",
    "RepetitionTime": 2,
    "SliceTiming": [
      0,
      0.0775,
      0.1575,
      0.2375,
      0.315,
      0.395,
      0.475,
      0.5525,
      0.6325,
      0.7125,
      0.79,
      0.87,
      0.95,
      1.0275,
      1.1075,
      1.1875,
      1.265,
      1.345,
      1.425,
      1.5025,
      1.5825,
      1.6625,
      1.74,
      1.82,
      1.9,
      0,
      0.0775,
      0.1575,
      0.2375,
      0.315,
      0.395,
      0.475,
      0.5525,
      0.6325,
      0.7125,
      0.79,
      0.87,
      0.95,
      1.0275,
      1.1075,
      1.1875,
      1.265,
      1.345,
      1.425,
      1.5025,
      1.5825,
      1.6625,
      1.74,
      1.82,
      1.9,
      0,
      0.0775,
      0.1575,
      0.2375,
      0.315,
      0.395,
      0.475,
      0.5525,
      0.6325,
      0.7125,
      0.79,
      0.87,
      0.95,
      1.0275,
      1.1075,
      1.1875,
      1.265,
      1.345,
      1.425,
      1.5025,
      1.5825,
      1.6625,
      1.74,
      1.82,
      1.9
    ],
    "TaskName": "piper",
    "dataset": "ds004228",
    "dcmmeta_affine": [
      [
        -2.0,
        0.0,
        0.0,
        96.0
      ],
      [
        0.0,
        2.0,
        0.0,
        -67.29900360107422
      ],
      [
        0.0,
        0.0,
        2.0,
        -71.13909912109375
      ],
      [
        0.0,
        0.0,
        0.0,
        1.0
      ]
    ],
    "dcmmeta_reorient_transform": [
      [
        0.0,
        -1.0,
        0.0,
        95.0
      ],
      [
        1.0,
        0.0,
        0.0,
        0.0
      ],
      [
        0.0,
        0.0,
        1.0,
        0.0
      ],
      [
        0.0,
        0.0,
        0.0,
        1.0
      ]
    ],
    "dcmmeta_shape": [
      96,
      96,
      75,
      150
    ],
    "dcmmeta_slice_dim": 2,
    "dcmmeta_version": 0.6,
    "global": {
      "const": {
        "AccessionNumber": "798873",
        "AcquisitionMatrix": [
          96,
          0,
          0,
          96
        ],
        "AngioFlag": "N",
        "BitsAllocated": 16,
        "BitsStored": 16,
        "BodyPartExamined": "BRAIN",
        "CardiacNumberOfImages": 1,
        "Columns": 864,
        "EchoNumbers": 1,
        "EchoTime": 30.2,
        "EchoTrainLength": 84,
        "FlipAngle": 90.0,
        "HighBit": 15,
        "ImageOrientationPatient": [
          1.0,
          0.0,
          0.0,
          0.0,
          1.0,
          0.0
        ],
        "ImagePositionPatient": [
          -864.0,
          -890.701,
          -71.1391
        ],
        "ImageType": [
          "ORIGINAL",
          "PRIMARY",
          "M",
          "MB",
          "ND",
          "MOSAIC"
        ],
        "ImagedNucleus": "1H",
        "ImagingFrequency": 123.263,
        "InPlanePhaseEncodingDirection": "COL",
        "MRAcquisitionType": "2D",
        "MagneticFieldStrength": 3.0,
        "Manufacturer": "SIEMENS",
        "ManufacturerModelName": "Prisma",
        "Modality": "MR",
        "NominalInterval": 0,
        "NumberOfAverages": 1.0,
        "NumberOfFrames": 1,
        "NumberOfPhaseEncodingSteps": 84,
        "PercentPhaseFieldOfView": 100.0,
        "PercentSampling": 100.0,
        "PerformedProcedureStepStartTime": "135932.069000",
        "PhotometricInterpretation": "MONOCHROME2",
        "PixelBandwidth": 1860.0,
        "PixelRepresentation": 0,
        "PixelSpacing": [
          2.0,
          2.0
        ],
        "ProtocolName": "BOLD_resting1",
        "RepetitionTime": 2000.0,
        "Rows": 864,
        "SAR": 0.372357,
        "SamplesPerPixel": 1,
        "ScanOptions": [
          "PFP",
          "FS",
          "EXT"
        ],
        "ScanningSequence": "EP",
        "SequenceName": "epfid2d1_96",
        "SequenceVariant": [
          "SK",
          "SS"
        ],
        "SeriesDescription": "BOLD_resting1",
        "SeriesNumber": 19,
        "SeriesTime": "143941.670000",
        "SliceLocation": -71.1391,
        "SliceThickness": 2.0,
        "SmallestImagePixelValue": 0,
        "SoftwareVersions": "syngo MR E11",
        "SpacingBetweenSlices": 2.0,
        "SpecificCharacterSet": "ISO_IR 100",
        "StudyID": "1",
        "StudyTime": "135932.001000",
        "TransmitCoilName": "Body",
        "VariableFlipAngleFlag": "N",
        "WindowCenterWidthExplanation": "Algo1",
        "dBdt": 0.0
      },
      "slices": {}
    },
    "modality": "bold",
    "run_id": 1,
    "session_id": "01",
    "subject_id": "37",
    "task_id": "piper",
    "time": {
      "samples": {
        "AcquisitionNumber": [
          1,
          2,
          3,
          4,
          5,
          6,
          7,
          8,
          9,
          10,
          11,
          12,
          13,
          14,
          15,
          16,
          17,
          18,
          19,
          20,
          21,
          22,
          23,
          24,
          25,
          26,
          27,
          28,
          29,
          30,
          31,
          32,
          33,
          34,
          35,
          36,
          37,
          38,
          39,
          40,
          41,
          42,
          43,
          44,
          45,
          46,
          47,
          48,
          49,
          50,
          51,
          52,
          53,
          54,
          55,
          56,
          57,
          58,
          59,
          60,
          61,
          62,
          63,
          64,
          65,
          66,
          67,
          68,
          69,
          70,
          71,
          72,
          73,
          74,
          75,
          76,
          77,
          78,
          79,
          80,
          81,
          82,
          83,
          84,
          85,
          86,
          87,
          88,
          89,
          90,
          91,
          92,
          93,
          94,
          95,
          96,
          97,
          98,
          99,
          100,
          101,
          102,
          103,
          104,
          105,
          106,
          107,
          108,
          109,
          110,
          111,
          112,
          113,
          114,
          115,
          116,
          117,
          118,
          119,
          120,
          121,
          122,
          123,
          124,
          125,
          126,
          127,
          128,
          129,
          130,
          131,
          132,
          133,
          134,
          135,
          136,
          137,
          138,
          139,
          140,
          141,
          142,
          143,
          144,
          145,
          146,
          147,
          148,
          149,
          150
        ],
        "AcquisitionTime": [
          "143938.670000",
          "143940.670000",
          "143942.670000",
          "143944.670000",
          "143946.670000",
          "143948.670000",
          "143950.670000",
          "143952.670000",
          "143954.670000",
          "143956.670000",
          "143958.670000",
          "144000.670000",
          "144002.670000",
          "144004.670000",
          "144006.670000",
          "144008.670000",
          "144010.670000",
          "144012.670000",
          "144014.670000",
          "144016.670000",
          "144018.670000",
          "144020.670000",
          "144022.670000",
          "144024.670000",
          "144026.670000",
          "144028.670000",
          "144030.670000",
          "144032.670000",
          "144034.670000",
          "144036.670000",
          "144038.670000",
          "144040.670000",
          "144042.670000",
          "144044.670000",
          "144046.670000",
          "144048.670000",
          "144050.670000",
          "144052.670000",
          "144054.670000",
          "144056.670000",
          "144058.670000",
          "144100.670000",
          "144102.670000",
          "144104.670000",
          "144106.670000",
          "144108.670000",
          "144110.670000",
          "144112.670000",
          "144114.670000",
          "144116.670000",
          "144118.670000",
          "144120.670000",
          "144122.670000",
          "144124.670000",
          "144126.670000",
          "144128.670000",
          "144130.670000",
          "144132.670000",
          "144134.670000",
          "144136.670000",
          "144138.670000",
          "144140.670000",
          "144142.670000",
          "144144.670000",
          "144146.670000",
          "144148.670000",
          "144150.670000",
          "144152.670000",
          "144154.670000",
          "144156.670000",
          "144158.670000",
          "144200.670000",
          "144202.670000",
          "144204.670000",
          "144206.670000",
          "144208.670000",
          "144210.670000",
          "144212.670000",
          "144214.670000",
          "144216.670000",
          "144218.670000",
          "144220.670000",
          "144222.670000",
          "144224.670000",
          "144226.670000",
          "144228.670000",
          "144230.670000",
          "144232.670000",
          "144234.670000",
          "144236.670000",
          "144238.670000",
          "144240.670000",
          "144242.670000",
          "144244.670000",
          "144246.670000",
          "144248.670000",
          "144250.670000",
          "144252.670000",
          "144254.670000",
          "144256.670000",
          "144258.670000",
          "144300.670000",
          "144302.670000",
          "144304.670000",
          "144306.670000",
          "144308.670000",
          "144310.670000",
          "144312.670000",
          "144314.670000",
          "144316.670000",
          "144318.670000",
          "144320.670000",
          "144322.670000",
          "144324.670000",
          "144326.670000",
          "144328.670000",
          "144330.670000",
          "144332.670000",
          "144334.670000",
          "144336.670000",
          "144338.670000",
          "144340.670000",
          "144342.670000",
          "144344.670000",
          "144346.670000",
          "144348.670000",
          "144350.670000",
          "144352.670000",
          "144354.670000",
          "144356.670000",
          "144358.670000",
          "144400.670000",
          "144402.670000",
          "144404.670000",
          "144406.670000",
          "144408.670000",
          "144410.670000",
          "144412.670000",
          "144414.670000",
          "144416.670000",
          "144418.670000",
          "144420.670000",
          "144422.670000",
          "144424.670000",
          "144426.670000",
          "144428.670000",
          "144430.670000",
          "144432.670000",
          "144434.670000",
          "144436.670000"
        ],
        "ContentTime": [
          "143941.674000",
          "143943.669000",
          "143945.669000",
          "143947.668000",
          "143949.668000",
          "143951.668000",
          "143953.668000",
          "143955.669000",
          "143957.669000",
          "143959.669000",
          "144001.669000",
          "144003.669000",
          "144005.668000",
          "144007.668000",
          "144009.668000",
          "144011.668000",
          "144013.669000",
          "144015.669000",
          "144017.669000",
          "144019.669000",
          "144021.668000",
          "144023.668000",
          "144025.668000",
          "144027.668000",
          "144029.668000",
          "144031.669000",
          "144033.669000",
          "144035.669000",
          "144037.669000",
          "144039.668000",
          "144041.668000",
          "144043.668000",
          "144045.668000",
          "144047.669000",
          "144049.669000",
          "144051.669000",
          "144053.669000",
          "144055.669000",
          "144057.668000",
          "144059.668000",
          "144101.668000",
          "144103.668000",
          "144105.669000",
          "144107.669000",
          "144109.669000",
          "144111.669000",
          "144113.669000",
          "144115.668000",
          "144117.668000",
          "144119.668000",
          "144121.668000",
          "144123.669000",
          "144125.669000",
          "144127.669000",
          "144129.669000",
          "144131.668000",
          "144133.668000",
          "144135.668000",
          "144137.668000",
          "144139.668000",
          "144141.669000",
          "144143.669000",
          "144145.669000",
          "144147.681000",
          "144149.668000",
          "144151.668000",
          "144153.668000",
          "144155.668000",
          "144157.669000",
          "144159.669000",
          "144201.669000",
          "144203.669000",
          "144205.669000",
          "144207.668000",
          "144209.668000",
          "144211.668000",
          "144213.668000",
          "144215.669000",
          "144217.669000",
          "144219.669000",
          "144221.669000",
          "144223.669000",
          "144225.668000",
          "144227.668000",
          "144229.668000",
          "144231.668000",
          "144233.669000",
          "144235.669000",
          "144237.669000",
          "144239.669000",
          "144241.668000",
          "144243.668000",
          "144245.668000",
          "144247.668000",
          "144249.668000",
          "144251.669000",
          "144253.669000",
          "144255.669000",
          "144257.669000",
          "144259.668000",
          "144301.668000",
          "144303.668000",
          "144305.668000",
          "144307.669000",
          "144309.669000",
          "144311.669000",
          "144313.669000",
          "144315.669000",
          "144317.668000",
          "144319.668000",
          "144321.668000",
          "144323.668000",
          "144325.669000",
          "144327.669000",
          "144329.669000",
          "144331.669000",
          "144333.669000",
          "144335.668000",
          "144337.668000",
          "144339.668000",
          "144341.668000",
          "144343.669000",
          "144345.669000",
          "144347.669000",
          "144349.669000",
          "144351.668000",
          "144353.668000",
          "144355.668000",
          "144357.668000",
          "144359.668000",
          "144401.669000",
          "144403.669000",
          "144405.669000",
          "144407.669000",
          "144409.668000",
          "144411.668000",
          "144413.668000",
          "144415.668000",
          "144417.669000",
          "144419.669000",
          "144421.669000",
          "144423.669000",
          "144425.669000",
          "144427.668000",
          "144429.668000",
          "144431.668000",
          "144433.668000",
          "144435.669000",
          "144437.669000",
          "144439.309000"
        ],
        "InstanceCreationTime": [
          "143941.674000",
          "143943.669000",
          "143945.669000",
          "143947.668000",
          "143949.668000",
          "143951.668000",
          "143953.668000",
          "143955.669000",
          "143957.669000",
          "143959.669000",
          "144001.669000",
          "144003.669000",
          "144005.668000",
          "144007.668000",
          "144009.668000",
          "144011.668000",
          "144013.669000",
          "144015.669000",
          "144017.669000",
          "144019.669000",
          "144021.668000",
          "144023.668000",
          "144025.668000",
          "144027.668000",
          "144029.668000",
          "144031.669000",
          "144033.669000",
          "144035.669000",
          "144037.669000",
          "144039.668000",
          "144041.668000",
          "144043.668000",
          "144045.668000",
          "144047.669000",
          "144049.669000",
          "144051.669000",
          "144053.669000",
          "144055.669000",
          "144057.668000",
          "144059.668000",
          "144101.668000",
          "144103.668000",
          "144105.669000",
          "144107.669000",
          "144109.669000",
          "144111.669000",
          "144113.669000",
          "144115.668000",
          "144117.668000",
          "144119.668000",
          "144121.668000",
          "144123.669000",
          "144125.669000",
          "144127.669000",
          "144129.669000",
          "144131.668000",
          "144133.668000",
          "144135.668000",
          "144137.668000",
          "144139.668000",
          "144141.669000",
          "144143.669000",
          "144145.669000",
          "144147.681000",
          "144149.668000",
          "144151.668000",
          "144153.668000",
          "144155.668000",
          "144157.669000",
          "144159.669000",
          "144201.669000",
          "144203.669000",
          "144205.669000",
          "144207.668000",
          "144209.668000",
          "144211.668000",
          "144213.668000",
          "144215.669000",
          "144217.669000",
          "144219.669000",
          "144221.669000",
          "144223.669000",
          "144225.668000",
          "144227.668000",
          "144229.668000",
          "144231.668000",
          "144233.669000",
          "144235.669000",
          "144237.669000",
          "144239.669000",
          "144241.668000",
          "144243.668000",
          "144245.668000",
          "144247.668000",
          "144249.668000",
          "144251.669000",
          "144253.669000",
          "144255.669000",
          "144257.669000",
          "144259.668000",
          "144301.668000",
          "144303.668000",
          "144305.668000",
          "144307.669000",
          "144309.669000",
          "144311.669000",
          "144313.669000",
          "144315.669000",
          "144317.668000",
          "144319.668000",
          "144321.668000",
          "144323.668000",
          "144325.669000",
          "144327.669000",
          "144329.669000",
          "144331.669000",
          "144333.669000",
          "144335.668000",
          "144337.668000",
          "144339.668000",
          "144341.668000",
          "144343.669000",
          "144345.669000",
          "144347.669000",
          "144349.669000",
          "144351.668000",
          "144353.668000",
          "144355.668000",
          "144357.668000",
          "144359.668000",
          "144401.669000",
          "144403.669000",
          "144405.669000",
          "144407.669000",
          "144409.668000",
          "144411.668000",
          "144413.668000",
          "144415.668000",
          "144417.669000",
          "144419.669000",
          "144421.669000",
          "144423.669000",
          "144425.669000",
          "144427.668000",
          "144429.668000",
          "144431.668000",
          "144433.668000",
          "144435.669000",
          "144437.669000",
          "144439.309000"
        ],
        "InstanceNumber": [
          1,
          2,
          3,
          4,
          5,
          6,
          7,
          8,
          9,
          10,
          11,
          12,
          13,
          14,
          15,
          16,
          17,
          18,
          19,
          20,
          21,
          22,
          23,
          24,
          25,
          26,
          27,
          28,
          29,
          30,
          31,
          32,
          33,
          34,
          35,
          36,
          37,
          38,
          39,
          40,
          41,
          42,
          43,
          44,
          45,
          46,
          47,
          48,
          49,
          50,
          51,
          52,
          53,
          54,
          55,
          56,
          57,
          58,
          59,
          60,
          61,
          62,
          63,
          64,
          65,
          66,
          67,
          68,
          69,
          70,
          71,
          72,
          73,
          74,
          75,
          76,
          77,
          78,
          79,
          80,
          81,
          82,
          83,
          84,
          85,
          86,
          87,
          88,
          89,
          90,
          91,
          92,
          93,
          94,
          95,
          96,
          97,
          98,
          99,
          100,
          101,
          102,
          103,
          104,
          105,
          106,
          107,
          108,
          109,
          110,
          111,
          112,
          113,
          114,
          115,
          116,
          117,
          118,
          119,
          120,
          121,
          122,
          123,
          124,
          125,
          126,
          127,
          128,
          129,
          130,
          131,
          132,
          133,
          134,
          135,
          136,
          137,
          138,
          139,
          140,
          141,
          142,
          143,
          144,
          145,
          146,
          147,
          148,
          149,
          150
        ],
        "LargestImagePixelValue": [
          23607,
          23182,
          22850,
          22694,
          23254,
          22625,
          22402,
          22611,
          23168,
          22992,
          22783,
          22895,
          22997,
          22684,
          22969,
          22795,
          23039,
          23089,
          22824,
          22834,
          22944,
          22986,
          22924,
          23295,
          23059,
          22852,
          23068,
          23093,
          23209,
          22800,
          22731,
          22537,
          23011,
          22970,
          22738,
          22738,
          22972,
          22857,
          22721,
          23225,
          23006,
          22944,
          22618,
          22797,
          23027,
          22641,
          22543,
          22723,
          22607,
          22692,
          22793,
          22878,
          22599,
          22697,
          22867,
          22738,
          22807,
          22911,
          22167,
          21833,
          22393,
          21962,
          21636,
          21683,
          22221,
          21852,
          21330,
          21818,
          21797,
          21703,
          21706,
          21704,
          21905,
          21376,
          21522,
          21933,
          21322,
          21650,
          21703,
          21527,
          22447,
          22020,
          21845,
          21685,
          21676,
          21421,
          21440,
          21529,
          22111,
          21834,
          21291,
          21490,
          21695,
          21158,
          21363,
          21922,
          21491,
          21354,
          21689,
          21786,
          21510,
          21572,
          21796,
          21323,
          21669,
          21453,
          21311,
          21629,
          21506,
          21414,
          21306,
          21330,
          21651,
          21504,
          21208,
          21671,
          21478,
          21637,
          21620,
          21789,
          21546,
          21439,
          21500,
          21692,
          21711,
          21770,
          21751,
          22165,
          22063,
          21840,
          21689,
          21497,
          21283,
          21248,
          21320,
          21582,
          21698,
          22026,
          21719,
          22265,
          22251,
          22154,
          22082,
          22369,
          21802,
          21704,
          22147,
          22006,
          21699,
          22268
        ],
        "TriggerTime": [
          11675.0,
          13675.0,
          15675.0,
          17675.0,
          19675.0,
          21675.0,
          23675.0,
          25675.0,
          27675.0,
          29675.0,
          31675.0,
          33675.0,
          35675.0,
          37675.0,
          39675.0,
          41675.0,
          43675.0,
          45675.0,
          47675.0,
          49675.0,
          51675.0,
          53675.0,
          55675.0,
          57675.0,
          59675.0,
          61675.0,
          63675.0,
          65675.0,
          67675.0,
          69675.0,
          71675.0,
          73675.0,
          75675.0,
          77675.0,
          79675.0,
          81675.0,
          83675.0,
          85675.0,
          87675.0,
          89675.0,
          91675.0,
          93675.0,
          95675.0,
          97675.0,
          99675.0,
          101675.0,
          103675.0,
          105675.0,
          107675.0,
          109675.0,
          111675.0,
          113675.0,
          115675.0,
          117675.0,
          119675.0,
          121675.0,
          123675.0,
          125675.0,
          127675.0,
          129675.0,
          131675.0,
          133675.0,
          135675.0,
          137675.0,
          139675.0,
          141675.0,
          143675.0,
          145675.0,
          147675.0,
          149675.0,
          151675.0,
          153675.0,
          155675.0,
          157675.0,
          159675.0,
          161675.0,
          163675.0,
          165675.0,
          167675.0,
          169675.0,
          171675.0,
          173675.0,
          175675.0,
          177675.0,
          179675.0,
          181675.0,
          183675.0,
          185675.0,
          187675.0,
          189675.0,
          191675.0,
          193675.0,
          195675.0,
          197675.0,
          199675.0,
          201675.0,
          203675.0,
          205675.0,
          207675.0,
          209675.0,
          211675.0,
          213675.0,
          215675.0,
          217675.0,
          219675.0,
          221675.0,
          223675.0,
          225675.0,
          227675.0,
          229675.0,
          231675.0,
          233675.0,
          235675.0,
          237675.0,
          239675.0,
          241675.0,
          243675.0,
          245675.0,
          247675.0,
          249675.0,
          251675.0,
          253675.0,
          255675.0,
          257675.0,
          259675.0,
          261675.0,
          263675.0,
          265675.0,
          267675.0,
          269675.0,
          271675.0,
          273675.0,
          275675.0,
          277675.0,
          279675.0,
          281675.0,
          283675.0,
          285675.0,
          287675.0,
          289675.0,
          291675.0,
          293675.0,
          295675.0,
          297675.0,
          299675.0,
          301675.0,
          303675.0,
          305675.0,
          307675.0,
          309675.0
        ],
        "WindowCenter": [
          7602.0,
          7576.0,
          7575.0,
          7586.0,
          7592.0,
          7587.0,
          7578.0,
          7565.0,
          7551.0,
          7547.0,
          7549.0,
          7563.0,
          7550.0,
          7528.0,
          7517.0,
          7516.0,
          7523.0,
          7526.0,
          7515.0,
          7525.0,
          7546.0,
          7535.0,
          7533.0,
          7530.0,
          7523.0,
          7513.0,
          7514.0,
          7526.0,
          7524.0,
          7524.0,
          7539.0,
          7518.0,
          7531.0,
          7533.0,
          7527.0,
          7524.0,
          7522.0,
          7526.0,
          7516.0,
          7519.0,
          7511.0,
          7513.0,
          7503.0,
          7513.0,
          7544.0,
          7539.0,
          7529.0,
          7527.0,
          7547.0,
          7537.0,
          7534.0,
          7526.0,
          7535.0,
          7536.0,
          7542.0,
          7531.0,
          7518.0,
          7601.0,
          7533.0,
          7487.0,
          7491.0,
          7483.0,
          7489.0,
          7487.0,
          7496.0,
          7476.0,
          7477.0,
          7494.0,
          7488.0,
          7489.0,
          7495.0,
          7495.0,
          7497.0,
          7488.0,
          7497.0,
          7506.0,
          7497.0,
          7504.0,
          7507.0,
          7510.0,
          7529.0,
          7521.0,
          7498.0,
          7496.0,
          7487.0,
          7500.0,
          7509.0,
          7511.0,
          7528.0,
          7520.0,
          7501.0,
          7498.0,
          7499.0,
          7491.0,
          7489.0,
          7506.0,
          7508.0,
          7509.0,
          7520.0,
          7520.0,
          7498.0,
          7498.0,
          7510.0,
          7498.0,
          7496.0,
          7498.0,
          7500.0,
          7507.0,
          7496.0,
          7497.0,
          7498.0,
          7487.0,
          7497.0,
          7487.0,
          7478.0,
          7506.0,
          7502.0,
          7508.0,
          7509.0,
          7495.0,
          7483.0,
          7485.0,
          7488.0,
          7496.0,
          7503.0,
          7505.0,
          7520.0,
          7516.0,
          7513.0,
          7488.0,
          7473.0,
          7464.0,
          7453.0,
          7455.0,
          7477.0,
          7443.0,
          7418.0,
          7411.0,
          7414.0,
          7444.0,
          7463.0,
          7477.0,
          7490.0,
