{
  "aor": 0.0399064,
  "aqi": 0.016368568400000002,
  "bids_meta": {
    "ConversionSoftware": "dcm2niix",
    "ConversionSoftwareVersion": "v1.0.20170207",
    "EchoTime": 0.0302,
    "EffectiveEchoSpacing": 0.000640002,
    "FlipAngle": 90,
    "ImageType": [
      "ORIGINAL",
      "PRIMARY",
      "M",
      "MB",
      "ND",
      "MOSAIC"
    ],
    "MagneticFieldStrength": 3,
    "Manufacturer": "Siemens",
    "ManufacturersModelName": "Prisma",
    "PhaseEncodingDirection": "j-",
    "ProcedureStepDescription": "CAMRIS_CHOP",
    "ProtocolName": "BOLD_resting1",
    "RepetitionTime": 2,
    "SliceTiming": [
      0,
      0.08,
      0.1575,
      0.2375,
      0.3175,
      0.395,
      0.475,
      0.555,
      0.6325,
      0.7125,
      0.7925,
      0.8725,
      0.95,
      1.03,
      1.11,
      1.1875,
      1.2675,
      1.3475,
      1.425,
      1.505,
      1.585,
      1.6625,
      1.7425,
      1.8225,
      1.9,
      0,
      0.08,
      0.1575,
      0.2375,
      0.3175,
      0.395,
      0.475,
      0.555,
      0.6325,
      0.7125,
      0.7925,
      0.8725,
      0.95,
      1.03,
      1.11,
      1.1875,
      1.2675,
      1.3475,
      1.425,
      1.505,
      1.585,
      1.6625,
      1.7425,
      1.8225,
      1.9,
      0,
      0.08,
      0.1575,
      0.2375,
      0.3175,
      0.395,
      0.475,
      0.555,
      0.6325,
      0.7125,
      0.7925,
      0.8725,
      0.95,
      1.03,
      1.11,
      1.1875,
      1.2675,
      1.3475,
      1.425,
      1.505,
      1.585,
      1.6625,
      1.7425,
      1.8225,
      1.9
    ],
    "TaskName": "piper",
    "dataset": "ds004228",
    "dcmmeta_affine": [
      [
        -2.0,
        0.0,
        0.0,
        96.0
      ],
      [
        0.0,
        2.0,
        0.0,
        -86.16899871826172
      ],
      [
        0.0,
        0.0,
        2.0,
        -41.46989822387695
      ],
      [
        0.0,
        0.0,
        0.0,
        1.0
      ]
    ],
    "dcmmeta_reorient_transform": [
      [
        0.0,
        -1.0,
        0.0,
        95.0
      ],
      [
        1.0,
        0.0,
        0.0,
        0.0
      ],
      [
        0.0,
        0.0,
        1.0,
        0.0
      ],
      [
        0.0,
        0.0,
        0.0,
        1.0
      ]
    ],
    "dcmmeta_shape": [
      96,
      96,
      75,
      150
    ],
    "dcmmeta_slice_dim": 2,
    "dcmmeta_version": 0.6,
    "global": {
      "const": {
        "AcquisitionMatrix": [
          96,
          0,
          0,
          96
        ],
        "AngioFlag": "N",
        "BitsAllocated": 16,
        "BitsStored": 16,
        "BodyPartExamined": "BRAIN",
        "CardiacNumberOfImages": 1,
        "Columns": 864,
        "EchoNumbers": 1,
        "EchoTime": 30.2,
        "EchoTrainLength": 84,
        "FlipAngle": 90.0,
        "HighBit": 15,
        "ImageOrientationPatient": [
          1.0,
          0.0,
          0.0,
          0.0,
          1.0,
          0.0
        ],
        "ImagePositionPatient": [
          -864.0,
          -871.831,
          -41.4699
        ],
        "ImageType": [
          "ORIGINAL",
          "PRIMARY",
          "M",
          "MB",
          "ND",
          "MOSAIC"
        ],
        "ImagedNucleus": "1H",
        "ImagingFrequency": 123.255,
        "InPlanePhaseEncodingDirection": "COL",
        "MRAcquisitionType": "2D",
        "MagneticFieldStrength": 3.0,
        "Manufacturer": "SIEMENS",
        "ManufacturerModelName": "Prisma",
        "Modality": "MR",
        "NominalInterval": 0,
        "NumberOfAverages": 1.0,
        "NumberOfFrames": 1,
        "NumberOfPhaseEncodingSteps": 84,
        "PercentPhaseFieldOfView": 100.0,
        "PercentSampling": 100.0,
        "PerformedProcedureStepStartTime": "130827.621000",
        "PhotometricInterpretation": "MONOCHROME2",
        "PixelBandwidth": 1860.0,
        "PixelRepresentation": 0,
        "PixelSpacing": [
          2.0,
          2.0
        ],
        "ProtocolName": "BOLD_resting1",
        "RepetitionTime": 2000.0,
        "Rows": 864,
        "SAR": 0.111303,
        "SamplesPerPixel": 1,
        "ScanOptions": [
          "PFP",
          "FS",
          "EXT"
        ],
        "ScanningSequence": "EP",
        "SequenceName": "epfid2d1_96",
        "SequenceVariant": [
          "SK",
          "SS"
        ],
        "SeriesDescription": "BOLD_resting1",
        "SeriesNumber": 20,
        "SeriesTime": "135527.857000",
        "SliceLocation": -41.4699,
        "SliceThickness": 2.0,
        "SmallestImagePixelValue": 0,
        "SoftwareVersions": "syngo MR E11",
        "SpacingBetweenSlices": 2.0,
        "SpecificCharacterSet": "ISO_IR 100",
        "StudyID": "1",
        "StudyTime": "130827.551000",
        "TransmitCoilName": "Body",
        "VariableFlipAngleFlag": "N",
        "WindowCenterWidthExplanation": "Algo1",
        "dBdt": 0.0
      },
      "slices": {}
    },
    "modality": "bold",
    "run_id": 1,
    "session_id": "01",
    "subject_id": "61",
    "task_id": "piper",
    "time": {
      "samples": {
        "AcquisitionNumber": [
          1,
          2,
          3,
          4,
          5,
          6,
          7,
          8,
          9,
          10,
          11,
          12,
          13,
          14,
          15,
          16,
          17,
          18,
          19,
          20,
          21,
          22,
          23,
          24,
          25,
          26,
          27,
          28,
          29,
          30,
          31,
          32,
          33,
          34,
          35,
          36,
          37,
          38,
          39,
          40,
          41,
          42,
          43,
          44,
          45,
          46,
          47,
          48,
          49,
          50,
          51,
          52,
          53,
          54,
          55,
          56,
          57,
          58,
          59,
          60,
          61,
          62,
          63,
          64,
          65,
          66,
          67,
          68,
          69,
          70,
          71,
          72,
          73,
          74,
          75,
          76,
          77,
          78,
          79,
          80,
          81,
          82,
          83,
          84,
          85,
          86,
          87,
          88,
          89,
          90,
          91,
          92,
          93,
          94,
          95,
          96,
          97,
          98,
          99,
          100,
          101,
          102,
          103,
          104,
          105,
          106,
          107,
          108,
          109,
          110,
          111,
          112,
          113,
          114,
          115,
          116,
          117,
          118,
          119,
          120,
          121,
          122,
          123,
          124,
          125,
          126,
          127,
          128,
          129,
          130,
          131,
          132,
          133,
          134,
          135,
          136,
          137,
          138,
          139,
          140,
          141,
          142,
          143,
          144,
          145,
          146,
          147,
          148,
          149,
          150
        ],
        "AcquisitionTime": [
          "135525.495000",
          "135527.495000",
          "135529.495000",
          "135531.495000",
          "135533.495000",
          "135535.495000",
          "135537.495000",
          "135539.495000",
          "135541.495000",
          "135543.495000",
          "135545.495000",
          "135547.495000",
          "135549.495000",
          "135551.495000",
          "135553.495000",
          "135555.495000",
          "135557.495000",
          "135559.495000",
          "135601.495000",
          "135603.495000",
          "135605.495000",
          "135607.495000",
          "135609.495000",
          "135611.495000",
          "135613.495000",
          "135615.495000",
          "135617.495000",
          "135619.495000",
          "135621.495000",
          "135623.495000",
          "135625.495000",
          "135627.495000",
          "135629.495000",
          "135631.495000",
          "135633.495000",
          "135635.495000",
          "135637.495000",
          "135639.495000",
          "135641.495000",
          "135643.495000",
          "135645.495000",
          "135647.495000",
          "135649.495000",
          "135651.495000",
          "135653.495000",
          "135655.495000",
          "135657.495000",
          "135659.495000",
          "135701.495000",
          "135703.495000",
          "135705.495000",
          "135707.495000",
          "135709.495000",
          "135711.495000",
          "135713.495000",
          "135715.495000",
          "135717.495000",
          "135719.495000",
          "135721.495000",
          "135723.495000",
          "135725.495000",
          "135727.495000",
          "135729.495000",
          "135731.495000",
          "135733.495000",
          "135735.495000",
          "135737.495000",
          "135739.495000",
          "135741.495000",
          "135743.495000",
          "135745.495000",
          "135747.495000",
          "135749.495000",
          "135751.495000",
          "135753.495000",
          "135755.495000",
          "135757.495000",
          "135759.495000",
          "135801.495000",
          "135803.495000",
          "135805.495000",
          "135807.495000",
          "135809.495000",
          "135811.495000",
          "135813.495000",
          "135815.495000",
          "135817.495000",
          "135819.495000",
          "135821.495000",
          "135823.495000",
          "135825.495000",
          "135827.495000",
          "135829.495000",
          "135831.495000",
          "135833.495000",
          "135835.495000",
          "135837.495000",
          "135839.495000",
          "135841.495000",
          "135843.495000",
          "135845.495000",
          "135847.495000",
          "135849.495000",
          "135851.495000",
          "135853.495000",
          "135855.495000",
          "135857.495000",
          "135859.495000",
          "135901.495000",
          "135903.495000",
          "135905.495000",
          "135907.495000",
          "135909.495000",
          "135911.495000",
          "135913.495000",
          "135915.495000",
          "135917.495000",
          "135919.495000",
          "135921.495000",
          "135923.495000",
          "135925.495000",
          "135927.495000",
          "135929.495000",
          "135931.495000",
          "135933.495000",
          "135935.495000",
          "135937.495000",
          "135939.495000",
          "135941.495000",
          "135943.495000",
          "135945.495000",
          "135947.495000",
          "135949.495000",
          "135951.495000",
          "135953.495000",
          "135955.495000",
          "135957.495000",
          "135959.495000",
          "140001.495000",
          "140003.495000",
          "140005.495000",
          "140007.495000",
          "140009.495000",
          "140011.495000",
          "140013.495000",
          "140015.495000",
          "140017.495000",
          "140019.495000",
          "140021.495000",
          "140023.495000"
        ],
        "ContentTime": [
          "135527.861000",
          "135529.856000",
          "135531.856000",
          "135533.856000",
          "135535.856000",
          "135537.856000",
          "135539.856000",
          "135541.855000",
          "135543.856000",
          "135545.856000",
          "135547.856000",
          "135549.856000",
          "135551.856000",
          "135553.856000",
          "135555.856000",
          "135557.855000",
          "135559.855000",
          "135601.856000",
          "135603.856000",
          "135605.856000",
          "135607.856000",
          "135610.356000",
          "135611.856000",
          "135613.856000",
          "135615.855000",
          "135617.855000",
          "135619.856000",
          "135621.856000",
          "135623.856000",
          "135625.856000",
          "135627.856000",
          "135629.856000",
          "135631.856000",
          "135633.855000",
          "135635.856000",
          "135637.856000",
          "135639.856000",
          "135641.856000",
          "135643.856000",
          "135645.856000",
          "135647.856000",
          "135649.856000",
          "135651.855000",
          "135653.856000",
          "135655.856000",
          "135657.856000",
          "135659.856000",
          "135701.856000",
          "135703.856000",
          "135705.856000",
          "135707.855000",
          "135709.855000",
          "135711.856000",
          "135713.856000",
          "135715.856000",
          "135717.856000",
          "135719.856000",
          "135721.856000",
          "135723.856000",
          "135725.855000",
          "135727.855000",
          "135729.856000",
          "135731.856000",
          "135733.856000",
          "135735.856000",
          "135737.856000",
          "135739.856000",
          "135741.856000",
          "135743.855000",
          "135745.856000",
          "135747.856000",
          "135749.856000",
          "135751.856000",
          "135753.856000",
          "135755.856000",
          "135757.856000",
          "135759.856000",
          "135801.855000",
          "135803.856000",
          "135805.856000",
          "135807.856000",
          "135809.856000",
          "135811.856000",
          "135813.856000",
          "135815.856000",
          "135817.855000",
          "135819.855000",
          "135821.856000",
          "135823.856000",
          "135825.856000",
          "135827.856000",
          "135829.856000",
          "135831.856000",
          "135833.856000",
          "135835.855000",
          "135837.855000",
          "135839.856000",
          "135841.856000",
          "135843.856000",
          "135845.856000",
          "135847.856000",
          "135849.856000",
          "135851.856000",
          "135853.855000",
          "135855.856000",
          "135857.856000",
          "135859.856000",
          "135901.856000",
          "135903.856000",
          "135905.856000",
          "135907.856000",
          "135909.856000",
          "135911.855000",
          "135913.856000",
          "135915.856000",
          "135917.856000",
          "135919.856000",
          "135921.872000",
          "135923.856000",
          "135925.856000",
          "135927.855000",
          "135929.855000",
          "135931.856000",
          "135933.856000",
          "135935.856000",
          "135937.856000",
          "135939.856000",
          "135941.856000",
          "135943.856000",
          "135945.855000",
          "135947.855000",
          "135949.856000",
          "135951.856000",
          "135953.856000",
          "135955.856000",
          "135957.856000",
          "135959.856000",
          "140001.856000",
          "140003.855000",
          "140005.856000",
          "140007.856000",
          "140009.856000",
          "140011.856000",
          "140013.856000",
          "140015.856000",
          "140017.856000",
          "140019.856000",
          "140021.855000",
          "140023.856000",
          "140025.826000"
        ],
        "InstanceCreationTime": [
          "135527.861000",
          "135529.856000",
          "135531.856000",
          "135533.856000",
          "135535.856000",
          "135537.856000",
          "135539.856000",
          "135541.855000",
          "135543.856000",
          "135545.856000",
          "135547.856000",
          "135549.856000",
          "135551.856000",
          "135553.856000",
          "135555.856000",
          "135557.855000",
          "135559.855000",
          "135601.856000",
          "135603.856000",
          "135605.856000",
          "135607.856000",
          "135610.356000",
          "135611.856000",
          "135613.856000",
          "135615.855000",
          "135617.855000",
          "135619.856000",
          "135621.856000",
          "135623.856000",
          "135625.856000",
          "135627.856000",
          "135629.856000",
          "135631.856000",
          "135633.855000",
          "135635.856000",
          "135637.856000",
          "135639.856000",
          "135641.856000",
          "135643.856000",
          "135645.856000",
          "135647.856000",
          "135649.856000",
          "135651.855000",
          "135653.856000",
          "135655.856000",
          "135657.856000",
          "135659.856000",
          "135701.856000",
          "135703.856000",
          "135705.856000",
          "135707.855000",
          "135709.855000",
          "135711.856000",
          "135713.856000",
          "135715.856000",
          "135717.856000",
          "135719.856000",
          "135721.856000",
          "135723.856000",
          "135725.855000",
          "135727.855000",
          "135729.856000",
          "135731.856000",
          "135733.856000",
          "135735.856000",
          "135737.856000",
          "135739.856000",
          "135741.856000",
          "135743.855000",
          "135745.856000",
          "135747.856000",
          "135749.856000",
          "135751.856000",
          "135753.856000",
          "135755.856000",
          "135757.856000",
          "135759.856000",
          "135801.855000",
          "135803.856000",
          "135805.856000",
          "135807.856000",
          "135809.856000",
          "135811.856000",
          "135813.856000",
          "135815.856000",
          "135817.855000",
          "135819.855000",
          "135821.856000",
          "135823.856000",
          "135825.856000",
          "135827.856000",
          "135829.856000",
          "135831.856000",
          "135833.856000",
          "135835.855000",
          "135837.855000",
          "135839.856000",
          "135841.856000",
          "135843.856000",
          "135845.856000",
          "135847.856000",
          "135849.856000",
          "135851.856000",
          "135853.855000",
          "135855.856000",
          "135857.856000",
          "135859.856000",
          "135901.856000",
          "135903.856000",
          "135905.856000",
          "135907.856000",
          "135909.856000",
          "135911.855000",
          "135913.856000",
          "135915.856000",
          "135917.856000",
          "135919.856000",
          "135921.872000",
          "135923.856000",
          "135925.856000",
          "135927.855000",
          "135929.855000",
          "135931.856000",
          "135933.856000",
          "135935.856000",
          "135937.856000",
          "135939.856000",
          "135941.856000",
          "135943.856000",
          "135945.855000",
          "135947.855000",
          "135949.856000",
          "135951.856000",
          "135953.856000",
          "135955.856000",
          "135957.856000",
          "135959.856000",
          "140001.856000",
          "140003.855000",
          "140005.856000",
          "140007.856000",
          "140009.856000",
          "140011.856000",
          "140013.856000",
          "140015.856000",
          "140017.856000",
          "140019.856000",
          "140021.855000",
          "140023.856000",
          "140025.826000"
        ],
        "InstanceNumber": [
          1,
          2,
          3,
          4,
          5,
          6,
          7,
          8,
          9,
          10,
          11,
          12,
          13,
          14,
          15,
          16,
          17,
          18,
          19,
          20,
          21,
          22,
          23,
          24,
          25,
          26,
          27,
          28,
          29,
          30,
          31,
          32,
          33,
          34,
          35,
          36,
          37,
          38,
          39,
          40,
          41,
          42,
          43,
          44,
          45,
          46,
          47,
          48,
          49,
          50,
          51,
          52,
          53,
          54,
          55,
          56,
          57,
          58,
          59,
          60,
          61,
          62,
          63,
          64,
          65,
          66,
          67,
          68,
          69,
          70,
          71,
          72,
          73,
          74,
          75,
          76,
          77,
          78,
          79,
          80,
          81,
          82,
          83,
          84,
          85,
          86,
          87,
          88,
          89,
          90,
          91,
          92,
          93,
          94,
          95,
          96,
          97,
          98,
          99,
          100,
          101,
          102,
          103,
          104,
          105,
          106,
          107,
          108,
          109,
          110,
          111,
          112,
          113,
          114,
          115,
          116,
          117,
          118,
          119,
          120,
          121,
          122,
          123,
          124,
          125,
          126,
          127,
          128,
          129,
          130,
          131,
          132,
          133,
          134,
          135,
          136,
          137,
          138,
          139,
          140,
          141,
          142,
          143,
          144,
          145,
          146,
          147,
          148,
          149,
          150
        ],
        "LargestImagePixelValue": [
          21617,
          20942,
          21275,
          21296,
          22136,
          20450,
          21364,
          20917,
          20281,
          20195,
          20291,
          19889,
          20416,
          19972,
          21736,
          21798,
          20884,
          19761,
          20791,
          20291,
          21703,
          20747,
          21088,
          20518,
          20999,
          21349,
          18707,
          20998,
          20838,
          20079,
          19823,
          19761,
          20599,
          20378,
          21329,
          20806,
          20842,
          21133,
          20722,
          20856,
          20007,
          19516,
          20052,
          19747,
          19990,
          20735,
          19781,
          21603,
          21456,
          20739,
          20651,
          20693,
          21344,
          20859,
          21225,
          20553,
          20776,
          21197,
          20328,
          21298,
          21053,
          21480,
          21094,
          21302,
          21342,
          21696,
          21806,
          21851,
          21509,
          21512,
          21331,
          21516,
          21221,
          21351,
          21271,
          21600,
          21460,
          21211,
          21235,
          21579,
          21478,
          21303,
          20829,
          21288,
          21310,
          21416,
          21144,
          21313,
          21350,
          20915,
          21186,
          20890,
          21499,
          21385,
          21391,
          21492,
          21232,
          21316,
          20981,
          21393,
          21225,
          21436,
          21172,
          21210,
          21447,
          21523,
          21298,
          21292,
          21460,
          21161,
          21552,
          21117,
          21295,
          20998,
          21188,
          21071,
          20942,
          21352,
          21178,
          21201,
          21445,
          21084,
          21174,
          21198,
          20915,
          21084,
          20771,
          21210,
          20744,
          21224,
          20656,
          20996,
          21102,
          21195,
          21307,
          20981,
          21011,
          21082,
          21353,
          20748,
          21230,
          21246,
          21332,
          20582,
          20957,
          21298,
          20813,
          20909,
          20673,
          20639
        ],
        "TriggerTime": [
          11652.5,
          13652.5,
          15652.5,
          17652.5,
          19652.5,
          21652.5,
          23652.5,
          25652.5,
          27652.5,
          29652.5,
          31652.5,
          33652.5,
          35652.5,
          37652.5,
          39652.5,
          41652.5,
          43652.5,
          45652.5,
          47652.5,
          49652.5,
          51652.5,
          53652.5,
          55652.5,
          57652.5,
          59652.5,
          61652.5,
          63652.5,
          65652.5,
          67652.5,
          69652.5,
          71652.5,
          73652.5,
          75652.5,
          77652.5,
          79652.5,
          81652.5,
          83652.5,
          85652.5,
          87652.5,
          89652.5,
          91652.5,
          93652.5,
          95652.5,
          97652.5,
          99652.5,
          101653.0,
          103653.0,
          105653.0,
          107653.0,
          109653.0,
          111653.0,
          113653.0,
          115653.0,
          117653.0,
          119653.0,
          121653.0,
          123653.0,
          125653.0,
          127653.0,
          129653.0,
          131653.0,
          133653.0,
          135653.0,
          137653.0,
          139653.0,
          141653.0,
          143653.0,
          145653.0,
          147653.0,
          149653.0,
          151653.0,
          153653.0,
          155653.0,
          157653.0,
          159653.0,
          161653.0,
          163653.0,
          165653.0,
          167653.0,
          169653.0,
          171653.0,
          173653.0,
          175653.0,
          177653.0,
          179653.0,
          181653.0,
          183653.0,
          185653.0,
          187653.0,
          189653.0,
          191653.0,
          193653.0,
          195653.0,
          197653.0,
          199653.0,
          201653.0,
          203653.0,
          205653.0,
          207653.0,
          209653.0,
          211653.0,
          213653.0,
          215653.0,
          217653.0,
          219653.0,
          221653.0,
          223653.0,
          225653.0,
          227653.0,
          229653.0,
          231653.0,
          233653.0,
          235653.0,
          237653.0,
          239653.0,
          241653.0,
          243653.0,
          245653.0,
          247653.0,
          249653.0,
          251653.0,
          253653.0,
          255653.0,
          257653.0,
          259653.0,
          261653.0,
          263653.0,
          265653.0,
          267653.0,
          269653.0,
          271653.0,
          273653.0,
          275653.0,
          277653.0,
          279653.0,
          281653.0,
          283653.0,
          285653.0,
          287653.0,
          289653.0,
          291653.0,
          293653.0,
          295653.0,
          297653.0,
          299653.0,
          301653.0,
          303653.0,
          305653.0,
          307653.0,
          309653.0
        ],
        "WindowCenter": [
          7831.0,
          7772.0,
          7782.0,
          7789.0,
          7744.0,
          7577.0,
          7682.0,
          7741.0,
          7710.0,
          7695.0,
          7671.0,
          7718.0,
          7672.0,
          7308.0,
          7809.0,
          7784.0,
          7635.0,
          7530.0,
          7728.0,
          7587.0,
          7702.0,
          7673.0,
          7695.0,
          7688.0,
          7734.0,
          7738.0,
          7057.0,
          7902.0,
          7785.0,
          7723.0,
          7688.0,
          7717.0,
          7758.0,
          7777.0,
          7796.0,
          7692.0,
          7739.0,
          7745.0,
          7683.0,
          7621.0,
          7524.0,
          7554.0,
          7696.0,
          7642.0,
          7619.0,
          7290.0,
          7511.0,
          7845.0,
          7820.0,
          7782.0,
          7773.0,
          7795.0,
          7796.0,
          7787.0,
          7819.0,
          7760.0,
          7771.0,
          7801.0,
          7806.0,
          7866.0,
          7856.0,
          7878.0,
          7847.0,
          7836.0,
          7859.0,
          7874.0,
          7879.0,
          7856.0,
          7856.0,
          7864.0,
          7867.0,
          7879.0,
          7860.0,
          7901.0,
          7881.0,
          7898.0,
          7877.0,
          7860.0,
          7871.0,
          7857.0,
          7866.0,
          7856.0,
          7838.0,
          7880.0,
          7870.0,
          7889.0,
          7839.0,
          7868.0,
          7856.0,
          7851.0,
          7859.0,
          7831.0,
          7868.0,
          7857.0,
          7887.0,
          7888.0,
          7871.0,
          7877.0,
          7839.0,
          7877.0,
          7859.0,
          7878.0,
          7859.0,
          7869.0,
          7888.0,
          7888.0,
          7889.0,
          7899.0,
          7891.0,
          7842.0,
          7850.0,
          7830.0,
          7848.0,
          7838.0,
          7829.0,
          7848.0,
          7830.0,
          7858.0,
          7859.0,
          7860.0,
          7871.0,
          7860.0,
          7880.0,
          7851.0,
          7862.0,
          7859.0,
          7841.0,
          7872.0,
          7852.0,
          7881.0,
          7843.0,
          7872.0,
          7851.0,
          7873.0,
          7850.0,
          7850.0,
          7863.0,
          7863.0,
          7881.0,
          7843.0,
          7894.0,
          7865.0,
          7883.0,
          7823.0,
          7864.0,
          7858.0,
