{
  "aor": 0.0012930666666666668,
  "aqi": 0.006198700533333333,
  "bids_meta": {
    "ConversionSoftware": "dcm2niix",
    "ConversionSoftwareVersion": "v1.0.20170207",
    "EchoTime": 0.0302,
    "EffectiveEchoSpacing": 0.000640002,
    "FlipAngle": 90,
    "ImageType": [
      "ORIGINAL",
      "PRIMARY",
      "M",
      "MB",
      "ND",
      "MOSAIC"
    ],
    "MagneticFieldStrength": 3,
    "Manufacturer": "Siemens",
    "ManufacturersModelName": "Prisma",
    "PhaseEncodingDirection": "j-",
    "ProcedureStepDescription": "CAMRIS_CHOP",
    "ProtocolName": "BOLD_resting1",
    "RepetitionTime": 2,
    "SliceTiming": [
      0,
      0.0775,
      0.1575,
      0.2375,
      0.315,
      0.395,
      0.475,
      0.5525,
      0.6325,
      0.7125,
      0.79,
      0.87,
      0.95,
      1.0275,
      1.1075,
      1.1875,
      1.265,
      1.345,
      1.425,
      1.505,
      1.5825,
      1.6625,
      1.7425,
      1.82,
      1.9,
      0,
      0.0775,
      0.1575,
      0.2375,
      0.315,
      0.395,
      0.475,
      0.5525,
      0.6325,
      0.7125,
      0.79,
      0.87,
      0.95,
      1.0275,
      1.1075,
      1.1875,
      1.265,
      1.345,
      1.425,
      1.505,
      1.5825,
      1.6625,
      1.7425,
      1.82,
      1.9,
      0,
      0.0775,
      0.1575,
      0.2375,
      0.315,
      0.395,
      0.475,
      0.5525,
      0.6325,
      0.7125,
      0.79,
      0.87,
      0.95,
      1.0275,
      1.1075,
      1.1875,
      1.265,
      1.345,
      1.425,
      1.505,
      1.5825,
      1.6625,
      1.7425,
      1.82,
      1.9
    ],
    "TaskName": "piper",
    "dataset": "ds004228",
    "dcmmeta_affine": [
      [
        -2.0,
        0.0,
        0.0,
        91.78299713134766
      ],
      [
        0.0,
        2.0,
        0.0,
        -72.91600036621094
      ],
      [
        0.0,
        0.0,
        2.0,
        -32.43370056152344
      ],
      [
        0.0,
        0.0,
        0.0,
        1.0
      ]
    ],
    "dcmmeta_reorient_transform": [
      [
        0.0,
        -1.0,
        0.0,
        95.0
      ],
      [
        1.0,
        0.0,
        0.0,
        0.0
      ],
      [
        0.0,
        0.0,
        1.0,
        0.0
      ],
      [
        0.0,
        0.0,
        0.0,
        1.0
      ]
    ],
    "dcmmeta_shape": [
      96,
      96,
      75,
      150
    ],
    "dcmmeta_slice_dim": 2,
    "dcmmeta_version": 0.6,
    "global": {
      "const": {
        "AcquisitionMatrix": [
          96,
          0,
          0,
          96
        ],
        "AngioFlag": "N",
        "BitsAllocated": 16,
        "BitsStored": 16,
        "BodyPartExamined": "BRAIN",
        "CardiacNumberOfImages": 1,
        "Columns": 864,
        "EchoNumbers": 1,
        "EchoTime": 30.2,
        "EchoTrainLength": 84,
        "FlipAngle": 90.0,
        "HighBit": 15,
        "ImageOrientationPatient": [
          1.0,
          0.0,
          0.0,
          0.0,
          1.0,
          0.0
        ],
        "ImagePositionPatient": [
          -859.783,
          -885.084,
          -32.4337
        ],
        "ImageType": [
          "ORIGINAL",
          "PRIMARY",
          "M",
          "MB",
          "ND",
          "MOSAIC"
        ],
        "ImagedNucleus": "1H",
        "ImagingFrequency": 123.263,
        "InPlanePhaseEncodingDirection": "COL",
        "MRAcquisitionType": "2D",
        "MagneticFieldStrength": 3.0,
        "Manufacturer": "SIEMENS",
        "ManufacturerModelName": "Prisma",
        "Modality": "MR",
        "NominalInterval": 0,
        "NumberOfAverages": 1.0,
        "NumberOfFrames": 1,
        "NumberOfPhaseEncodingSteps": 84,
        "PercentPhaseFieldOfView": 100.0,
        "PercentSampling": 100.0,
        "PerformedProcedureStepStartTime": "140602.192000",
        "PhotometricInterpretation": "MONOCHROME2",
        "PixelBandwidth": 1860.0,
        "PixelRepresentation": 0,
        "PixelSpacing": [
          2.0,
          2.0
        ],
        "ProtocolName": "BOLD_resting1",
        "RepetitionTime": 2000.0,
        "Rows": 864,
        "SAR": 0.104453,
        "SamplesPerPixel": 1,
        "ScanOptions": [
          "PFP",
          "FS",
          "EXT"
        ],
        "ScanningSequence": "EP",
        "SequenceName": "epfid2d1_96",
        "SequenceVariant": [
          "SK",
          "SS"
        ],
        "SeriesDescription": "BOLD_resting1",
        "SeriesNumber": 19,
        "SeriesTime": "144501.153000",
        "SliceLocation": -32.4337,
        "SliceThickness": 2.0,
        "SmallestImagePixelValue": 0,
        "SoftwareVersions": "syngo MR E11",
        "SpacingBetweenSlices": 2.0,
        "SpecificCharacterSet": "ISO_IR 100",
        "StudyID": "1",
        "StudyTime": "140602.038000",
        "TransmitCoilName": "Body",
        "VariableFlipAngleFlag": "N",
        "WindowCenterWidthExplanation": "Algo1",
        "dBdt": 0.0
      },
      "slices": {}
    },
    "modality": "bold",
    "run_id": 1,
    "session_id": "01",
    "subject_id": "43",
    "task_id": "piper",
    "time": {
      "samples": {
        "AcquisitionNumber": [
          1,
          2,
          3,
          4,
          5,
          6,
          7,
          8,
          9,
          10,
          11,
          12,
          13,
          14,
          15,
          16,
          17,
          18,
          19,
          20,
          21,
          22,
          23,
          24,
          25,
          26,
          27,
          28,
          29,
          30,
          31,
          32,
          33,
          34,
          35,
          36,
          37,
          38,
          39,
          40,
          41,
          42,
          43,
          44,
          45,
          46,
          47,
          48,
          49,
          50,
          51,
          52,
          53,
          54,
          55,
          56,
          57,
          58,
          59,
          60,
          61,
          62,
          63,
          64,
          65,
          66,
          67,
          68,
          69,
          70,
          71,
          72,
          73,
          74,
          75,
          76,
          77,
          78,
          79,
          80,
          81,
          82,
          83,
          84,
          85,
          86,
          87,
          88,
          89,
          90,
          91,
          92,
          93,
          94,
          95,
          96,
          97,
          98,
          99,
          100,
          101,
          102,
          103,
          104,
          105,
          106,
          107,
          108,
          109,
          110,
          111,
          112,
          113,
          114,
          115,
          116,
          117,
          118,
          119,
          120,
          121,
          122,
          123,
          124,
          125,
          126,
          127,
          128,
          129,
          130,
          131,
          132,
          133,
          134,
          135,
          136,
          137,
          138,
          139,
          140,
          141,
          142,
          143,
          144,
          145,
          146,
          147,
          148,
          149,
          150
        ],
        "AcquisitionTime": [
          "144458.037500",
          "144500.037500",
          "144502.037500",
          "144504.037500",
          "144506.037500",
          "144508.037500",
          "144510.037500",
          "144512.037500",
          "144514.037500",
          "144516.037500",
          "144518.037500",
          "144520.037500",
          "144522.037500",
          "144524.037500",
          "144526.037500",
          "144528.037500",
          "144530.037500",
          "144532.037500",
          "144534.037500",
          "144536.037500",
          "144538.037500",
          "144540.037500",
          "144542.037500",
          "144544.037500",
          "144546.037500",
          "144548.037500",
          "144550.037500",
          "144552.037500",
          "144554.037500",
          "144556.037500",
          "144558.037500",
          "144600.037500",
          "144602.037500",
          "144604.037500",
          "144606.037500",
          "144608.037500",
          "144610.037500",
          "144612.037500",
          "144614.037500",
          "144616.037500",
          "144618.037500",
          "144620.037500",
          "144622.037500",
          "144624.037500",
          "144626.037500",
          "144628.037500",
          "144630.037500",
          "144632.037500",
          "144634.037500",
          "144636.037500",
          "144638.037500",
          "144640.037500",
          "144642.037500",
          "144644.037500",
          "144646.037500",
          "144648.037500",
          "144650.037500",
          "144652.037500",
          "144654.037500",
          "144656.037500",
          "144658.037500",
          "144700.037500",
          "144702.037500",
          "144704.037500",
          "144706.037500",
          "144708.037500",
          "144710.037500",
          "144712.037500",
          "144714.037500",
          "144716.037500",
          "144718.037500",
          "144720.037500",
          "144722.037500",
          "144724.037500",
          "144726.037500",
          "144728.037500",
          "144730.037500",
          "144732.037500",
          "144734.037500",
          "144736.037500",
          "144738.037500",
          "144740.037500",
          "144742.037500",
          "144744.037500",
          "144746.037500",
          "144748.037500",
          "144750.037500",
          "144752.037500",
          "144754.037500",
          "144756.037500",
          "144758.037500",
          "144800.037500",
          "144802.037500",
          "144804.037500",
          "144806.037500",
          "144808.037500",
          "144810.037500",
          "144812.037500",
          "144814.037500",
          "144816.037500",
          "144818.037500",
          "144820.037500",
          "144822.037500",
          "144824.037500",
          "144826.037500",
          "144828.037500",
          "144830.037500",
          "144832.037500",
          "144834.037500",
          "144836.037500",
          "144838.037500",
          "144840.037500",
          "144842.037500",
          "144844.037500",
          "144846.037500",
          "144848.037500",
          "144850.037500",
          "144852.037500",
          "144854.037500",
          "144856.037500",
          "144858.037500",
          "144900.037500",
          "144902.037500",
          "144904.037500",
          "144906.037500",
          "144908.037500",
          "144910.037500",
          "144912.037500",
          "144914.037500",
          "144916.037500",
          "144918.037500",
          "144920.037500",
          "144922.037500",
          "144924.037500",
          "144926.037500",
          "144928.037500",
          "144930.037500",
          "144932.037500",
          "144934.037500",
          "144936.037500",
          "144938.037500",
          "144940.037500",
          "144942.037500",
          "144944.037500",
          "144946.037500",
          "144948.037500",
          "144950.037500",
          "144952.037500",
          "144954.037500",
          "144956.037500"
        ],
        "ContentTime": [
          "144501.157000",
          "144503.152000",
          "144505.153000",
          "144507.153000",
          "144509.153000",
          "144511.152000",
          "144513.152000",
          "144515.152000",
          "144517.152000",
          "144519.152000",
          "144521.152000",
          "144523.153000",
          "144525.153000",
          "144527.152000",
          "144529.152000",
          "144531.152000",
          "144533.152000",
          "144535.152000",
          "144537.152000",
          "144539.153000",
          "144541.153000",
          "144543.153000",
          "144545.152000",
          "144547.152000",
          "144549.152000",
          "144551.152000",
          "144553.152000",
          "144555.152000",
          "144557.153000",
          "144559.153000",
          "144601.153000",
          "144603.152000",
          "144605.152000",
          "144607.152000",
          "144609.152000",
          "144611.152000",
          "144613.152000",
          "144615.153000",
          "144617.153000",
          "144619.153000",
          "144621.152000",
          "144623.152000",
          "144625.152000",
          "144627.152000",
          "144629.152000",
          "144631.152000",
          "144633.153000",
          "144635.153000",
          "144637.152000",
          "144639.152000",
          "144641.152000",
          "144643.152000",
          "144645.152000",
          "144647.152000",
          "144649.153000",
          "144651.153000",
          "144653.153000",
          "144655.152000",
          "144657.152000",
          "144659.152000",
          "144701.152000",
          "144703.152000",
          "144705.152000",
          "144707.153000",
          "144709.153000",
          "144711.153000",
          "144713.152000",
          "144715.152000",
          "144717.152000",
          "144719.152000",
          "144721.152000",
          "144723.152000",
          "144725.153000",
          "144727.153000",
          "144729.153000",
          "144731.152000",
          "144733.152000",
          "144735.152000",
          "144737.152000",
          "144739.152000",
          "144741.153000",
          "144743.153000",
          "144745.153000",
          "144747.152000",
          "144749.152000",
          "144751.152000",
          "144753.152000",
          "144755.152000",
          "144757.152000",
          "144759.153000",
          "144801.153000",
          "144803.153000",
          "144805.152000",
          "144807.152000",
          "144809.152000",
          "144811.152000",
          "144813.152000",
          "144815.152000",
          "144817.153000",
          "144819.153000",
          "144821.153000",
          "144823.152000",
          "144825.152000",
          "144827.152000",
          "144829.152000",
          "144831.152000",
          "144833.152000",
          "144835.153000",
          "144837.153000",
          "144839.153000",
          "144841.152000",
          "144843.152000",
          "144845.152000",
          "144847.152000",
          "144849.152000",
          "144851.153000",
          "144853.153000",
          "144855.153000",
          "144857.152000",
          "144859.152000",
          "144901.152000",
          "144903.152000",
          "144905.152000",
          "144907.152000",
          "144909.153000",
          "144911.153000",
          "144913.153000",
          "144915.168000",
          "144917.152000",
          "144919.152000",
          "144921.152000",
          "144923.152000",
          "144925.152000",
          "144927.153000",
          "144929.153000",
          "144931.153000",
          "144933.152000",
          "144935.152000",
          "144937.152000",
          "144939.152000",
          "144941.152000",
          "144943.152000",
          "144945.153000",
          "144947.153000",
          "144949.153000",
          "144951.152000",
          "144953.152000",
          "144955.152000",
          "144957.152000",
          "144958.965000"
        ],
        "InstanceCreationTime": [
          "144501.157000",
          "144503.152000",
          "144505.153000",
          "144507.153000",
          "144509.153000",
          "144511.152000",
          "144513.152000",
          "144515.152000",
          "144517.152000",
          "144519.152000",
          "144521.152000",
          "144523.153000",
          "144525.153000",
          "144527.152000",
          "144529.152000",
          "144531.152000",
          "144533.152000",
          "144535.152000",
          "144537.152000",
          "144539.153000",
          "144541.153000",
          "144543.153000",
          "144545.152000",
          "144547.152000",
          "144549.152000",
          "144551.152000",
          "144553.152000",
          "144555.152000",
          "144557.153000",
          "144559.153000",
          "144601.153000",
          "144603.152000",
          "144605.152000",
          "144607.152000",
          "144609.152000",
          "144611.152000",
          "144613.152000",
          "144615.153000",
          "144617.153000",
          "144619.153000",
          "144621.152000",
          "144623.152000",
          "144625.152000",
          "144627.152000",
          "144629.152000",
          "144631.152000",
          "144633.153000",
          "144635.153000",
          "144637.152000",
          "144639.152000",
          "144641.152000",
          "144643.152000",
          "144645.152000",
          "144647.152000",
          "144649.153000",
          "144651.153000",
          "144653.153000",
          "144655.152000",
          "144657.152000",
          "144659.152000",
          "144701.152000",
          "144703.152000",
          "144705.152000",
          "144707.153000",
          "144709.153000",
          "144711.153000",
          "144713.152000",
          "144715.152000",
          "144717.152000",
          "144719.152000",
          "144721.152000",
          "144723.152000",
          "144725.153000",
          "144727.153000",
          "144729.153000",
          "144731.152000",
          "144733.152000",
          "144735.152000",
          "144737.152000",
          "144739.152000",
          "144741.153000",
          "144743.153000",
          "144745.153000",
          "144747.152000",
          "144749.152000",
          "144751.152000",
          "144753.152000",
          "144755.152000",
          "144757.152000",
          "144759.153000",
          "144801.153000",
          "144803.153000",
          "144805.152000",
          "144807.152000",
          "144809.152000",
          "144811.152000",
          "144813.152000",
          "144815.152000",
          "144817.153000",
          "144819.153000",
          "144821.153000",
          "144823.152000",
          "144825.152000",
          "144827.152000",
          "144829.152000",
          "144831.152000",
          "144833.152000",
          "144835.153000",
          "144837.153000",
          "144839.153000",
          "144841.152000",
          "144843.152000",
          "144845.152000",
          "144847.152000",
          "144849.152000",
          "144851.153000",
          "144853.153000",
          "144855.153000",
          "144857.152000",
          "144859.152000",
          "144901.152000",
          "144903.152000",
          "144905.152000",
          "144907.152000",
          "144909.153000",
          "144911.153000",
          "144913.153000",
          "144915.168000",
          "144917.152000",
          "144919.152000",
          "144921.152000",
          "144923.152000",
          "144925.152000",
          "144927.153000",
          "144929.153000",
          "144931.153000",
          "144933.152000",
          "144935.152000",
          "144937.152000",
          "144939.152000",
          "144941.152000",
          "144943.152000",
          "144945.153000",
          "144947.153000",
          "144949.153000",
          "144951.152000",
          "144953.152000",
          "144955.152000",
          "144957.152000",
          "144958.965000"
        ],
        "InstanceNumber": [
          1,
          2,
          3,
          4,
          5,
          6,
          7,
          8,
          9,
          10,
          11,
          12,
          13,
          14,
          15,
          16,
          17,
          18,
          19,
          20,
          21,
          22,
          23,
          24,
          25,
          26,
          27,
          28,
          29,
          30,
          31,
          32,
          33,
          34,
          35,
          36,
          37,
          38,
          39,
          40,
          41,
          42,
          43,
          44,
          45,
          46,
          47,
          48,
          49,
          50,
          51,
          52,
          53,
          54,
          55,
          56,
          57,
          58,
          59,
          60,
          61,
          62,
          63,
          64,
          65,
          66,
          67,
          68,
          69,
          70,
          71,
          72,
          73,
          74,
          75,
          76,
          77,
          78,
          79,
          80,
          81,
          82,
          83,
          84,
          85,
          86,
          87,
          88,
          89,
          90,
          91,
          92,
          93,
          94,
          95,
          96,
          97,
          98,
          99,
          100,
          101,
          102,
          103,
          104,
          105,
          106,
          107,
          108,
          109,
          110,
          111,
          112,
          113,
          114,
          115,
          116,
          117,
          118,
          119,
          120,
          121,
          122,
          123,
          124,
          125,
          126,
          127,
          128,
          129,
          130,
          131,
          132,
          133,
          134,
          135,
          136,
          137,
          138,
          139,
          140,
          141,
          142,
          143,
          144,
          145,
          146,
          147,
          148,
          149,
          150
        ],
        "LargestImagePixelValue": [
          32733,
          32126,
          32520,
          32521,
          32739,
          31813,
          33428,
          32523,
          32265,
          32148,
          32241,
          32504,
          32105,
          32590,
          32208,
          32208,
          32104,
          31484,
          32469,
          32434,
          33035,
          31890,
          32454,
          32116,
          31833,
          32078,
          32439,
          32057,
          31880,
          31771,
          32089,
          32739,
          32147,
          31793,
          31275,
          31358,
          31827,
          31481,
          31927,
          32386,
          31549,
          31035,
          31474,
          31551,
          31627,
          31682,
          31758,
          32189,
          32414,
          32272,
          32418,
          32680,
          33191,
          33186,
          32896,
          32075,
          32983,
          32362,
          32679,
          33326,
          33501,
          33160,
          32547,
          33181,
          32897,
          33692,
          33464,
          33171,
          33416,
          33287,
          33732,
          33246,
          33854,
          33201,
          33227,
          32835,
          33884,
          33422,
          33821,
          33823,
          33787,
          33337,
          33821,
          33947,
          33989,
          33619,
          33149,
          33890,
          33237,
          33610,
          33916,
          33258,
          34286,
          33832,
          34355,
          33836,
          33960,
          33160,
          34182,
          34398,
          34600,
          33936,
          33810,
          33882,
          34108,
          34287,
          34744,
          34311,
          34445,
          34052,
          34311,
          33749,
          34629,
          34312,
          34305,
          34530,
          34406,
          34648,
          34320,
          34406,
          34536,
          35187,
          34864,
          34458,
          35435,
          34813,
          35097,
          34446,
          34375,
          34662,
          35312,
          34661,
          34730,
          34848,
          34587,
          34682,
          34574,
          34618,
          34230,
          34275,
          34622,
          34459,
          34788,
          34629,
          34587,
          34746,
          34453,
          34663,
          34878,
          34715
        ],
        "TriggerTime": [
          11715.0,
          13715.0,
          15715.0,
          17715.0,
          19715.0,
          21715.0,
          23715.0,
          25715.0,
          27715.0,
          29715.0,
          31715.0,
          33715.0,
          35715.0,
          37715.0,
          39715.0,
          41715.0,
          43715.0,
          45715.0,
          47715.0,
          49715.0,
          51715.0,
          53715.0,
          55715.0,
          57715.0,
          59715.0,
          61715.0,
          63715.0,
          65715.0,
          67715.0,
          69715.0,
          71715.0,
          73715.0,
          75715.0,
          77715.0,
          79715.0,
          81715.0,
          83715.0,
          85715.0,
          87715.0,
          89715.0,
          91715.0,
          93715.0,
          95715.0,
          97715.0,
          99715.0,
          101715.0,
          103715.0,
          105715.0,
          107715.0,
          109715.0,
          111715.0,
          113715.0,
          115715.0,
          117715.0,
          119715.0,
          121715.0,
          123715.0,
          125715.0,
          127715.0,
          129715.0,
          131715.0,
          133715.0,
          135715.0,
          137715.0,
          139715.0,
          141715.0,
          143715.0,
          145715.0,
          147715.0,
          149715.0,
          151715.0,
          153715.0,
          155715.0,
          157715.0,
          159715.0,
          161715.0,
          163715.0,
          165715.0,
          167715.0,
          169715.0,
          171715.0,
          173715.0,
          175715.0,
          177715.0,
          179715.0,
          181715.0,
          183715.0,
          185715.0,
          187715.0,
          189715.0,
          191715.0,
          193715.0,
          195715.0,
          197715.0,
          199715.0,
          201715.0,
          203715.0,
          205715.0,
          207715.0,
          209715.0,
          211715.0,
          213715.0,
          215715.0,
          217715.0,
          219715.0,
          221715.0,
          223715.0,
          225715.0,
          227715.0,
          229715.0,
          231715.0,
          233715.0,
          235715.0,
          237715.0,
          239715.0,
          241715.0,
          243715.0,
          245715.0,
          247715.0,
          249715.0,
          251715.0,
          253715.0,
          255715.0,
          257715.0,
          259715.0,
          261715.0,
          263715.0,
          265715.0,
          267715.0,
          269715.0,
          271715.0,
          273715.0,
          275715.0,
          277715.0,
          279715.0,
          281715.0,
          283715.0,
          285715.0,
          287715.0,
          289715.0,
          291715.0,
          293715.0,
          295715.0,
          297715.0,
          299715.0,
          301715.0,
          303715.0,
          305715.0,
          307715.0,
          309715.0
        ],
        "WindowCenter": [
          8701.0,
          8672.0,
          8678.0,
          8666.0,
          8677.0,
          8654.0,
          8668.0,
          8647.0,
          8635.0,
          8640.0,
          8659.0,
          8684.0,
          8663.0,
          8665.0,
          8659.0,
          8659.0,
          8642.0,
          8616.0,
          8628.0,
          8638.0,
          8673.0,
          8661.0,
          8672.0,
          8666.0,
          8647.0,
          8644.0,
          8653.0,
          8637.0,
          8625.0,
          8616.0,
          8636.0,
          8661.0,
          8666.0,
          8687.0,
          8694.0,
          8703.0,
          8703.0,
          8684.0,
          8682.0,
          8687.0,
          8681.0,
          8667.0,
          8664.0,
          8660.0,
          8643.0,
          8651.0,
          8670.0,
          8679.0,
          8696.0,
          8690.0,
          8696.0,
          8705.0,
          8720.0,
          8722.0,
          8683.0,
          8657.0,
          8682.0,
          8692.0,
          8676.0,
          8690.0,
          8718.0,
          8704.0,
          8677.0,
          8694.0,
          8697.0,
          8701.0,
          8702.0,
          8704.0,
          8704.0,
          8704.0,
          8707.0,
          8692.0,
          8716.0,
          8725.0,
          8715.0,
          8704.0,
          8713.0,
          8698.0,
          8705.0,
          8704.0,
          8708.0,
          8714.0,
          8737.0,
          8725.0,
          8707.0,
          8689.0,
          8681.0,
          8696.0,
          8698.0,
          8718.0,
          8733.0,
          8711.0,
          8723.0,
          8736.0,
          8747.0,
          8747.0,
          8737.0,
          8705.0,
          8715.0,
          8717.0,
          8732.0,
          8738.0,
          8742.0,
          8750.0,
          8756.0,
          8740.0,
          8739.0,
          8718.0,
          8733.0,
          8727.0,
          8738.0,
          8726.0,
          8746.0,
          8731.0,
          8738.0,
          8757.0,
          8758.0,
          8760.0,
          8768.0,
          8759.0,
          8750.0,
          8743.0,
          8727.0,
          8731.0,
          8763.0,
          8739.0,
          8736.0,
          8720.0,
          8724.0,
          8732.0,
          8745.0,
          8730.0,
          8737.0,
          8739.0,
          8749.0,
          8751.0,
          8742.0,
          8748.0,
          8733.0,
          8723.0,
          8740.0,
          8750.0,
          8770.0,
          8783.0,
          8765.0,
