{
  "aor": 0.005469266666666667,
  "aqi": 0.005411614733333334,
  "bids_meta": {
    "ConversionSoftware": "dcm2niix",
    "ConversionSoftwareVersion": "v1.0.20170207",
    "EchoTime": 0.0302,
    "EffectiveEchoSpacing": 0.000640002,
    "FlipAngle": 90,
    "ImageType": [
      "ORIGINAL",
      "PRIMARY",
      "M",
      "MB",
      "ND",
      "MOSAIC"
    ],
    "MagneticFieldStrength": 3,
    "Manufacturer": "Siemens",
    "ManufacturersModelName": "Prisma",
    "PhaseEncodingDirection": "j-",
    "ProcedureStepDescription": "CAMRIS_CHOP",
    "ProtocolName": "BOLD_resting1",
    "RepetitionTime": 2,
    "SliceTiming": [
      0,
      0.08,
      0.1575,
      0.2375,
      0.3175,
      0.395,
      0.475,
      0.555,
      0.6325,
      0.7125,
      0.7925,
      0.87,
      0.95,
      1.03,
      1.11,
      1.1875,
      1.2675,
      1.3475,
      1.425,
      1.505,
      1.585,
      1.6625,
      1.7425,
      1.8225,
      1.9,
      0,
      0.08,
      0.1575,
      0.2375,
      0.3175,
      0.395,
      0.475,
      0.555,
      0.6325,
      0.7125,
      0.7925,
      0.87,
      0.95,
      1.03,
      1.11,
      1.1875,
      1.2675,
      1.3475,
      1.425,
      1.505,
      1.585,
      1.6625,
      1.7425,
      1.8225,
      1.9,
      0,
      0.08,
      0.1575,
      0.2375,
      0.3175,
      0.395,
      0.475,
      0.555,
      0.6325,
      0.7125,
      0.7925,
      0.87,
      0.95,
      1.03,
      1.11,
      1.1875,
      1.2675,
      1.3475,
      1.425,
      1.505,
      1.585,
      1.6625,
      1.7425,
      1.8225,
      1.9
    ],
    "TaskName": "piper",
    "dataset": "ds004228",
    "dcmmeta_affine": [
      [
        -2.0,
        0.0,
        0.0,
        100.21700286865234
      ],
      [
        0.0,
        2.0,
        0.0,
        -80.1449966430664
      ],
      [
        0.0,
        0.0,
        2.0,
        -46.8916015625
      ],
      [
        0.0,
        0.0,
        0.0,
        1.0
      ]
    ],
    "dcmmeta_reorient_transform": [
      [
        0.0,
        -1.0,
        0.0,
        95.0
      ],
      [
        1.0,
        0.0,
        0.0,
        0.0
      ],
      [
        0.0,
        0.0,
        1.0,
        0.0
      ],
      [
        0.0,
        0.0,
        0.0,
        1.0
      ]
    ],
    "dcmmeta_shape": [
      96,
      96,
      75,
      150
    ],
    "dcmmeta_slice_dim": 2,
    "dcmmeta_version": 0.6,
    "global": {
      "const": {
        "AcquisitionMatrix": [
          96,
          0,
          0,
          96
        ],
        "AngioFlag": "N",
        "BitsAllocated": 16,
        "BitsStored": 16,
        "BodyPartExamined": "BRAIN",
        "CardiacNumberOfImages": 1,
        "Columns": 864,
        "EchoNumbers": 1,
        "EchoTime": 30.2,
        "EchoTrainLength": 84,
        "FlipAngle": 90.0,
        "HighBit": 15,
        "ImageOrientationPatient": [
          1.0,
          0.0,
          0.0,
          0.0,
          1.0,
          0.0
        ],
        "ImagePositionPatient": [
          -868.217,
          -877.855,
          -46.8916
        ],
        "ImageType": [
          "ORIGINAL",
          "PRIMARY",
          "M",
          "MB",
          "ND",
          "MOSAIC"
        ],
        "ImagedNucleus": "1H",
        "ImagingFrequency": 123.255,
        "InPlanePhaseEncodingDirection": "COL",
        "MRAcquisitionType": "2D",
        "MagneticFieldStrength": 3.0,
        "Manufacturer": "SIEMENS",
        "ManufacturerModelName": "Prisma",
        "Modality": "MR",
        "NominalInterval": 0,
        "NumberOfAverages": 1.0,
        "NumberOfFrames": 1,
        "NumberOfPhaseEncodingSteps": 84,
        "PercentPhaseFieldOfView": 100.0,
        "PercentSampling": 100.0,
        "PerformedProcedureStepStartTime": "101345.355000",
        "PhotometricInterpretation": "MONOCHROME2",
        "PixelBandwidth": 1860.0,
        "PixelRepresentation": 0,
        "PixelSpacing": [
          2.0,
          2.0
        ],
        "ProtocolName": "BOLD_resting1",
        "RepetitionTime": 2000.0,
        "Rows": 864,
        "SAR": 0.150584,
        "SamplesPerPixel": 1,
        "ScanOptions": [
          "PFP",
          "FS",
          "EXT"
        ],
        "ScanningSequence": "EP",
        "SequenceName": "epfid2d1_96",
        "SequenceVariant": [
          "SK",
          "SS"
        ],
        "SeriesDescription": "BOLD_resting1",
        "SeriesNumber": 14,
        "SeriesTime": "105053.965000",
        "SliceLocation": -46.8916,
        "SliceThickness": 2.0,
        "SmallestImagePixelValue": 0,
        "SoftwareVersions": "syngo MR E11",
        "SpacingBetweenSlices": 2.0,
        "SpecificCharacterSet": "ISO_IR 100",
        "StudyID": "1",
        "StudyTime": "101345.292000",
        "TransmitCoilName": "Body",
        "VariableFlipAngleFlag": "N",
        "WindowCenterWidthExplanation": "Algo1",
        "dBdt": 0.0
      },
      "slices": {}
    },
    "modality": "bold",
    "run_id": 1,
    "session_id": "01",
    "subject_id": "58",
    "task_id": "piper",
    "time": {
      "samples": {
        "AcquisitionNumber": [
          1,
          2,
          3,
          4,
          5,
          6,
          7,
          8,
          9,
          10,
          11,
          12,
          13,
          14,
          15,
          16,
          17,
          18,
          19,
          20,
          21,
          22,
          23,
          24,
          25,
          26,
          27,
          28,
          29,
          30,
          31,
          32,
          33,
          34,
          35,
          36,
          37,
          38,
          39,
          40,
          41,
          42,
          43,
          44,
          45,
          46,
          47,
          48,
          49,
          50,
          51,
          52,
          53,
          54,
          55,
          56,
          57,
          58,
          59,
          60,
          61,
          62,
          63,
          64,
          65,
          66,
          67,
          68,
          69,
          70,
          71,
          72,
          73,
          74,
          75,
          76,
          77,
          78,
          79,
          80,
          81,
          82,
          83,
          84,
          85,
          86,
          87,
          88,
          89,
          90,
          91,
          92,
          93,
          94,
          95,
          96,
          97,
          98,
          99,
          100,
          101,
          102,
          103,
          104,
          105,
          106,
          107,
          108,
          109,
          110,
          111,
          112,
          113,
          114,
          115,
          116,
          117,
          118,
          119,
          120,
          121,
          122,
          123,
          124,
          125,
          126,
          127,
          128,
          129,
          130,
          131,
          132,
          133,
          134,
          135,
          136,
          137,
          138,
          139,
          140,
          141,
          142,
          143,
          144,
          145,
          146,
          147,
          148,
          149,
          150
        ],
        "AcquisitionTime": [
          "105051.495000",
          "105053.495000",
          "105055.495000",
          "105057.495000",
          "105059.495000",
          "105101.495000",
          "105103.495000",
          "105105.495000",
          "105107.495000",
          "105109.495000",
          "105111.495000",
          "105113.495000",
          "105115.495000",
          "105117.495000",
          "105119.495000",
          "105121.495000",
          "105123.495000",
          "105125.495000",
          "105127.495000",
          "105129.495000",
          "105131.495000",
          "105133.495000",
          "105135.495000",
          "105137.495000",
          "105139.495000",
          "105141.495000",
          "105143.495000",
          "105145.495000",
          "105147.495000",
          "105149.495000",
          "105151.495000",
          "105153.495000",
          "105155.495000",
          "105157.495000",
          "105159.495000",
          "105201.495000",
          "105203.495000",
          "105205.495000",
          "105207.495000",
          "105209.495000",
          "105211.495000",
          "105213.495000",
          "105215.495000",
          "105217.495000",
          "105219.495000",
          "105221.495000",
          "105223.495000",
          "105225.495000",
          "105227.495000",
          "105229.495000",
          "105231.495000",
          "105233.495000",
          "105235.495000",
          "105237.495000",
          "105239.495000",
          "105241.495000",
          "105243.495000",
          "105245.495000",
          "105247.495000",
          "105249.495000",
          "105251.495000",
          "105253.495000",
          "105255.495000",
          "105257.495000",
          "105259.495000",
          "105301.495000",
          "105303.495000",
          "105305.495000",
          "105307.495000",
          "105309.495000",
          "105311.495000",
          "105313.495000",
          "105315.495000",
          "105317.495000",
          "105319.495000",
          "105321.495000",
          "105323.495000",
          "105325.495000",
          "105327.495000",
          "105329.495000",
          "105331.495000",
          "105333.495000",
          "105335.495000",
          "105337.495000",
          "105339.495000",
          "105341.495000",
          "105343.495000",
          "105345.495000",
          "105347.495000",
          "105349.495000",
          "105351.495000",
          "105353.495000",
          "105355.495000",
          "105357.495000",
          "105359.495000",
          "105401.495000",
          "105403.495000",
          "105405.495000",
          "105407.495000",
          "105409.495000",
          "105411.495000",
          "105413.495000",
          "105415.495000",
          "105417.495000",
          "105419.495000",
          "105421.495000",
          "105423.495000",
          "105425.495000",
          "105427.495000",
          "105429.495000",
          "105431.495000",
          "105433.495000",
          "105435.495000",
          "105437.495000",
          "105439.495000",
          "105441.495000",
          "105443.495000",
          "105445.495000",
          "105447.495000",
          "105449.495000",
          "105451.495000",
          "105453.495000",
          "105455.495000",
          "105457.495000",
          "105459.495000",
          "105501.495000",
          "105503.495000",
          "105505.495000",
          "105507.495000",
          "105509.495000",
          "105511.495000",
          "105513.495000",
          "105515.495000",
          "105517.495000",
          "105519.495000",
          "105521.495000",
          "105523.495000",
          "105525.495000",
          "105527.495000",
          "105529.495000",
          "105531.495000",
          "105533.495000",
          "105535.495000",
          "105537.495000",
          "105539.495000",
          "105541.495000",
          "105543.495000",
          "105545.495000",
          "105547.495000",
          "105549.495000"
        ],
        "ContentTime": [
          "105053.969000",
          "105055.963000",
          "105057.963000",
          "105059.963000",
          "105101.963000",
          "105103.963000",
          "105105.963000",
          "105107.963000",
          "105109.963000",
          "105111.964000",
          "105113.963000",
          "105115.963000",
          "105117.963000",
          "105119.963000",
          "105121.963000",
          "105123.963000",
          "105125.963000",
          "105127.963000",
          "105129.964000",
          "105131.963000",
          "105133.963000",
          "105135.963000",
          "105137.963000",
          "105139.963000",
          "105141.963000",
          "105143.963000",
          "105145.963000",
          "105147.963000",
          "105149.963000",
          "105151.963000",
          "105153.963000",
          "105155.963000",
          "105157.963000",
          "105159.963000",
          "105201.963000",
          "105203.964000",
          "105205.963000",
          "105207.963000",
          "105209.963000",
          "105211.963000",
          "105213.963000",
          "105215.963000",
          "105217.963000",
          "105219.963000",
          "105221.964000",
          "105223.963000",
          "105225.963000",
          "105227.963000",
          "105229.963000",
          "105231.963000",
          "105233.963000",
          "105235.963000",
          "105237.963000",
          "105239.963000",
          "105241.963000",
          "105243.963000",
          "105245.963000",
          "105247.963000",
          "105249.963000",
          "105251.963000",
          "105253.963000",
          "105255.963000",
          "105257.963000",
          "105259.963000",
          "105301.963000",
          "105303.963000",
          "105305.963000",
          "105307.963000",
          "105309.963000",
          "105311.963000",
          "105313.964000",
          "105315.963000",
          "105317.963000",
          "105319.963000",
          "105321.963000",
          "105323.963000",
          "105325.963000",
          "105327.963000",
          "105329.963000",
          "105331.964000",
          "105333.963000",
          "105335.963000",
          "105337.963000",
          "105339.963000",
          "105341.963000",
          "105343.972000",
          "105345.963000",
          "105347.963000",
          "105349.963000",
          "105351.963000",
          "105353.963000",
          "105355.963000",
          "105357.963000",
          "105359.963000",
          "105401.963000",
          "105403.963000",
          "105405.963000",
          "105407.963000",
          "105409.963000",
          "105411.963000",
          "105413.963000",
          "105415.963000",
          "105417.963000",
          "105419.963000",
          "105421.963000",
          "105423.964000",
          "105425.963000",
          "105427.963000",
          "105429.963000",
          "105431.963000",
          "105433.963000",
          "105435.963000",
          "105437.963000",
          "105439.963000",
          "105441.964000",
          "105443.963000",
          "105445.963000",
          "105447.963000",
          "105449.963000",
          "105451.963000",
          "105453.963000",
          "105455.963000",
          "105457.963000",
          "105459.963000",
          "105501.963000",
          "105503.963000",
          "105505.963000",
          "105507.963000",
          "105509.963000",
          "105511.963000",
          "105513.963000",
          "105515.964000",
          "105517.963000",
          "105519.963000",
          "105521.963000",
          "105523.963000",
          "105525.963000",
          "105527.963000",
          "105529.963000",
          "105531.963000",
          "105533.964000",
          "105535.963000",
          "105537.963000",
          "105539.963000",
          "105541.963000",
          "105543.963000",
          "105545.963000",
          "105547.963000",
          "105549.963000",
          "105551.705000"
        ],
        "InstanceCreationTime": [
          "105053.969000",
          "105055.963000",
          "105057.963000",
          "105059.963000",
          "105101.963000",
          "105103.963000",
          "105105.963000",
          "105107.963000",
          "105109.963000",
          "105111.964000",
          "105113.963000",
          "105115.963000",
          "105117.963000",
          "105119.963000",
          "105121.963000",
          "105123.963000",
          "105125.963000",
          "105127.963000",
          "105129.964000",
          "105131.963000",
          "105133.963000",
          "105135.963000",
          "105137.963000",
          "105139.963000",
          "105141.963000",
          "105143.963000",
          "105145.963000",
          "105147.963000",
          "105149.963000",
          "105151.963000",
          "105153.963000",
          "105155.963000",
          "105157.963000",
          "105159.963000",
          "105201.963000",
          "105203.964000",
          "105205.963000",
          "105207.963000",
          "105209.963000",
          "105211.963000",
          "105213.963000",
          "105215.963000",
          "105217.963000",
          "105219.963000",
          "105221.964000",
          "105223.963000",
          "105225.963000",
          "105227.963000",
          "105229.963000",
          "105231.963000",
          "105233.963000",
          "105235.963000",
          "105237.963000",
          "105239.963000",
          "105241.963000",
          "105243.963000",
          "105245.963000",
          "105247.963000",
          "105249.963000",
          "105251.963000",
          "105253.963000",
          "105255.963000",
          "105257.963000",
          "105259.963000",
          "105301.963000",
          "105303.963000",
          "105305.963000",
          "105307.963000",
          "105309.963000",
          "105311.963000",
          "105313.964000",
          "105315.963000",
          "105317.963000",
          "105319.963000",
          "105321.963000",
          "105323.963000",
          "105325.963000",
          "105327.963000",
          "105329.963000",
          "105331.964000",
          "105333.963000",
          "105335.963000",
          "105337.963000",
          "105339.963000",
          "105341.963000",
          "105343.972000",
          "105345.963000",
          "105347.963000",
          "105349.963000",
          "105351.963000",
          "105353.963000",
          "105355.963000",
          "105357.963000",
          "105359.963000",
          "105401.963000",
          "105403.963000",
          "105405.963000",
          "105407.963000",
          "105409.963000",
          "105411.963000",
          "105413.963000",
          "105415.963000",
          "105417.963000",
          "105419.963000",
          "105421.963000",
          "105423.964000",
          "105425.963000",
          "105427.963000",
          "105429.963000",
          "105431.963000",
          "105433.963000",
          "105435.963000",
          "105437.963000",
          "105439.963000",
          "105441.964000",
          "105443.963000",
          "105445.963000",
          "105447.963000",
          "105449.963000",
          "105451.963000",
          "105453.963000",
          "105455.963000",
          "105457.963000",
          "105459.963000",
          "105501.963000",
          "105503.963000",
          "105505.963000",
          "105507.963000",
          "105509.963000",
          "105511.963000",
          "105513.963000",
          "105515.964000",
          "105517.963000",
          "105519.963000",
          "105521.963000",
          "105523.963000",
          "105525.963000",
          "105527.963000",
          "105529.963000",
          "105531.963000",
          "105533.964000",
          "105535.963000",
          "105537.963000",
          "105539.963000",
          "105541.963000",
          "105543.963000",
          "105545.963000",
          "105547.963000",
          "105549.963000",
          "105551.705000"
        ],
        "InstanceNumber": [
          1,
          2,
          3,
          4,
          5,
          6,
          7,
          8,
          9,
          10,
          11,
          12,
          13,
          14,
          15,
          16,
          17,
          18,
          19,
          20,
          21,
          22,
          23,
          24,
          25,
          26,
          27,
          28,
          29,
          30,
          31,
          32,
          33,
          34,
          35,
          36,
          37,
          38,
          39,
          40,
          41,
          42,
          43,
          44,
          45,
          46,
          47,
          48,
          49,
          50,
          51,
          52,
          53,
          54,
          55,
          56,
          57,
          58,
          59,
          60,
          61,
          62,
          63,
          64,
          65,
          66,
          67,
          68,
          69,
          70,
          71,
          72,
          73,
          74,
          75,
          76,
          77,
          78,
          79,
          80,
          81,
          82,
          83,
          84,
          85,
          86,
          87,
          88,
          89,
          90,
          91,
          92,
          93,
          94,
          95,
          96,
          97,
          98,
          99,
          100,
          101,
          102,
          103,
          104,
          105,
          106,
          107,
          108,
          109,
          110,
          111,
          112,
          113,
          114,
          115,
          116,
          117,
          118,
          119,
          120,
          121,
          122,
          123,
          124,
          125,
          126,
          127,
          128,
          129,
          130,
          131,
          132,
          133,
          134,
          135,
          136,
          137,
          138,
          139,
          140,
          141,
          142,
          143,
          144,
          145,
          146,
          147,
          148,
          149,
          150
        ],
        "LargestImagePixelValue": [
          30398,
          29490,
          29160,
          29211,
          29032,
          29008,
          29049,
          28908,
          28966,
          29623,
          28871,
          28522,
          29721,
          28872,
          28426,
          28675,
          28607,
          28366,
          29097,
          28428,
          29245,
          28558,
          28809,
          28440,
          27949,
          28680,
          27969,
          28681,
          27928,
          28906,
          28854,
          28971,
          28480,
          28946,
          28745,
          28137,
          28575,
          28295,
          28181,
          28394,
          27593,
          27733,
          26986,
          27747,
          27657,
          27269,
          28438,
          27217,
          28240,
          27318,
          27291,
          27901,
          27149,
          28003,
          27442,
          28133,
          27612,
          29233,
          27730,
          28125,
          28070,
          27676,
          28686,
          27476,
          28206,
          27814,
          25378,
          24601,
          25631,
          29475,
          29039,
          28950,
          28398,
          28993,
          28599,
          29022,
          29219,
          29164,
          29407,
          29117,
          29337,
          29147,
          29534,
          29199,
          29536,
          29029,
          28951,
          29598,
          28900,
          29441,
          29307,
          29236,
          29112,
          28205,
          29058,
          28767,
          29246,
          28866,
          29588,
          28889,
          28601,
          28875,
          28894,
          28788,
          28843,
          29118,
          28846,
          29278,
          29304,
          29161,
          28881,
          29225,
          29122,
          28590,
          29230,
          29000,
          29372,
          29139,
          29622,
          29519,
          29121,
          29218,
          29254,
          29188,
          29405,
          28955,
          29645,
          25871,
          25529,
          24753,
          24963,
          24770,
          29570,
          29003,
          28750,
          29126,
          28928,
          29434,
          29474,
          29511,
          28816,
          28239,
          29118,
          28776,
          28120,
          28461,
          27788,
          29178,
          27839,
          28071
        ],
        "TriggerTime": [
          11657.5,
          13657.5,
          15657.5,
          17657.5,
          19657.5,
          21657.5,
          23657.5,
          25657.5,
          27657.5,
          29657.5,
          31657.5,
          33657.5,
          35657.5,
          37657.5,
          39657.5,
          41657.5,
          43657.5,
          45657.5,
          47657.5,
          49657.5,
          51657.5,
          53657.5,
          55657.5,
          57657.5,
          59657.5,
          61657.5,
          63657.5,
          65657.5,
          67657.5,
          69657.5,
          71657.5,
          73657.5,
          75657.5,
          77657.5,
          79657.5,
          81657.5,
          83657.5,
          85657.5,
          87657.5,
          89657.5,
          91657.5,
          93657.5,
          95657.5,
          97657.5,
          99657.5,
          101658.0,
          103658.0,
          105658.0,
          107658.0,
          109658.0,
          111658.0,
          113658.0,
          115658.0,
          117658.0,
          119658.0,
          121658.0,
          123658.0,
          125658.0,
          127658.0,
          129658.0,
          131658.0,
          133658.0,
          135658.0,
          137658.0,
          139658.0,
          141658.0,
          143658.0,
          145658.0,
          147658.0,
          149658.0,
          151658.0,
          153658.0,
          155658.0,
          157658.0,
          159658.0,
          161658.0,
          163658.0,
          165658.0,
          167658.0,
          169658.0,
          171658.0,
          173658.0,
          175658.0,
          177658.0,
          179658.0,
          181658.0,
          183658.0,
          185658.0,
          187658.0,
          189658.0,
          191658.0,
          193658.0,
          195658.0,
          197658.0,
          199658.0,
          201658.0,
          203658.0,
          205658.0,
          207658.0,
          209658.0,
          211658.0,
          213658.0,
          215658.0,
          217658.0,
          219658.0,
          221658.0,
          223658.0,
          225658.0,
          227658.0,
          229658.0,
          231658.0,
          233658.0,
          235658.0,
          237658.0,
          239658.0,
          241658.0,
          243658.0,
          245658.0,
          247658.0,
          249658.0,
          251658.0,
          253658.0,
          255658.0,
          257658.0,
          259658.0,
          261658.0,
          263658.0,
          265658.0,
          267658.0,
          269658.0,
          271658.0,
          273658.0,
          275658.0,
          277658.0,
          279658.0,
          281658.0,
          283658.0,
          285658.0,
          287658.0,
          289658.0,
          291658.0,
          293658.0,
          295658.0,
          297658.0,
          299658.0,
          301658.0,
          303658.0,
          305658.0,
          307658.0,
          309658.0
        ],
        "WindowCenter": [
          8814.0,
          8810.0,
          8789.0,
          8799.0,
          8779.0,
          8786.0,
          8789.0,
          8778.0,
          8805.0,
          8821.0,
          8800.0,
          8782.0,
          8795.0,
          8771.0,
          8755.0,
          8770.0,
          8752.0,
          8761.0,
          8779.0,
          8772.0,
          8797.0,
          8791.0,
          8800.0,
          8811.0,
          8796.0,
          8816.0,
          8789.0,
          8820.0,
          8780.0,
          8806.0,
          8797.0,
          8814.0,
          8805.0,
          8819.0,
          8816.0,
          8800.0,
          8819.0,
          8803.0,
          8814.0,
          8816.0,
          8786.0,
          8822.0,
          8800.0,
          8820.0,
          8840.0,
          8799.0,
          8837.0,
          8818.0,
          8836.0,
          8824.0,
          8807.0,
          8821.0,
          8798.0,
          8837.0,
          8805.0,
          8817.0,
          8795.0,
          8819.0,
          8812.0,
          8809.0,
          8810.0,
          8787.0,
          8816.0,
          8779.0,
          8792.0,
          8786.0,
          8657.0,
          8627.0,
          8642.0,
          8751.0,
          8754.0,
          8802.0,
          8787.0,
          8812.0,
          8797.0,
          8792.0,
          8803.0,
          8782.0,
          8796.0,
          8792.0,
          8806.0,
          8773.0,
          8760.0,
          8759.0,
          8767.0,
          8781.0,
          8783.0,
          8809.0,
          8786.0,
          8800.0,
          8789.0,
          8781.0,
          8790.0,
          8798.0,
          8804.0,
          8748.0,
          8771.0,
          8763.0,
          8780.0,
          8766.0,
          8766.0,
          8784.0,
          8786.0,
          8802.0,
          8783.0,
          8802.0,
          8803.0,
          8812.0,
          8780.0,
          8783.0,
          8795.0,
          8793.0,
          8794.0,
          8779.0,
          8801.0,
          8791.0,
          8818.0,
          8785.0,
          8789.0,
          8781.0,
          8773.0,
          8746.0,
          8744.0,
          8734.0,
          8752.0,
          8745.0,
          8794.0,
          8738.0,
          8630.0,
          8626.0,
          8645.0,
          8623.0,
          8778.0,
          8741.0,
          8754.0,
          8760.0,
          8752.0,
          8770.0,
          8780.0,
          8801.0,
          8774.0,
          8757.0,
          8770.0,
          8756.0,
          8757.0,
