{
  "aor": 0.026372466666666667,
  "aqi": 0.0060434262,
  "bids_meta": {
    "ConversionSoftware": "dcm2niix",
    "ConversionSoftwareVersion": "v1.0.20170207",
    "EchoTime": 0.0302,
    "EffectiveEchoSpacing": 0.000640002,
    "FlipAngle": 90,
    "ImageType": [
      "ORIGINAL",
      "PRIMARY",
      "M",
      "MB",
      "ND",
      "MOSAIC"
    ],
    "MagneticFieldStrength": 3,
    "Manufacturer": "Siemens",
    "ManufacturersModelName": "Prisma",
    "PhaseEncodingDirection": "j-",
    "ProcedureStepDescription": "CAMRIS_CHOP",
    "ProtocolName": "BOLD_resting1",
    "RepetitionTime": 2,
    "SliceTiming": [
      0,
      0.08,
      0.16,
      0.2375,
      0.3175,
      0.3975,
      0.475,
      0.555,
      0.635,
      0.715,
      0.7925,
      0.8725,
      0.9525,
      1.03,
      1.11,
      1.19,
      1.2675,
      1.3475,
      1.4275,
      1.505,
      1.585,
      1.665,
      1.7425,
      1.8225,
      1.9025,
      0,
      0.08,
      0.16,
      0.2375,
      0.3175,
      0.3975,
      0.475,
      0.555,
      0.635,
      0.715,
      0.7925,
      0.8725,
      0.9525,
      1.03,
      1.11,
      1.19,
      1.2675,
      1.3475,
      1.4275,
      1.505,
      1.585,
      1.665,
      1.7425,
      1.8225,
      1.9025,
      0,
      0.08,
      0.16,
      0.2375,
      0.3175,
      0.3975,
      0.475,
      0.555,
      0.635,
      0.715,
      0.7925,
      0.8725,
      0.9525,
      1.03,
      1.11,
      1.19,
      1.2675,
      1.3475,
      1.4275,
      1.505,
      1.585,
      1.665,
      1.7425,
      1.8225,
      1.9025
    ],
    "TaskName": "piper",
    "dataset": "ds004228",
    "dcmmeta_affine": [
      [
        -2.0,
        0.0,
        0.0,
        96.60199737548828
      ],
      [
        0.0,
        2.0,
        0.0,
        -80.1449966430664
      ],
      [
        0.0,
        0.0,
        2.0,
        -43.87950134277344
      ],
      [
        0.0,
        0.0,
        0.0,
        1.0
      ]
    ],
    "dcmmeta_reorient_transform": [
      [
        0.0,
        -1.0,
        0.0,
        95.0
      ],
      [
        1.0,
        0.0,
        0.0,
        0.0
      ],
      [
        0.0,
        0.0,
        1.0,
        0.0
      ],
      [
        0.0,
        0.0,
        0.0,
        1.0
      ]
    ],
    "dcmmeta_shape": [
      96,
      96,
      75,
      150
    ],
    "dcmmeta_slice_dim": 2,
    "dcmmeta_version": 0.6,
    "global": {
      "const": {
        "AcquisitionMatrix": [
          96,
          0,
          0,
          96
        ],
        "AngioFlag": "N",
        "BitsAllocated": 16,
        "BitsStored": 16,
        "BodyPartExamined": "BRAIN",
        "CardiacNumberOfImages": 1,
        "Columns": 864,
        "EchoNumbers": 1,
        "EchoTime": 30.2,
        "EchoTrainLength": 84,
        "FlipAngle": 90.0,
        "HighBit": 15,
        "ImageOrientationPatient": [
          1.0,
          0.0,
          0.0,
          0.0,
          1.0,
          0.0
        ],
        "ImagePositionPatient": [
          -864.602,
          -877.855,
          -43.8795
        ],
        "ImageType": [
          "ORIGINAL",
          "PRIMARY",
          "M",
          "MB",
          "ND",
          "MOSAIC"
        ],
        "ImagedNucleus": "1H",
        "ImagingFrequency": 123.255,
        "InPlanePhaseEncodingDirection": "COL",
        "MRAcquisitionType": "2D",
        "MagneticFieldStrength": 3.0,
        "Manufacturer": "SIEMENS",
        "ManufacturerModelName": "Prisma",
        "Modality": "MR",
        "NominalInterval": 0,
        "NumberOfAverages": 1.0,
        "NumberOfFrames": 1,
        "NumberOfPhaseEncodingSteps": 84,
        "PercentPhaseFieldOfView": 100.0,
        "PercentSampling": 100.0,
        "PerformedProcedureStepStartTime": "125401.862000",
        "PhotometricInterpretation": "MONOCHROME2",
        "PixelBandwidth": 1860.0,
        "PixelRepresentation": 0,
        "PixelSpacing": [
          2.0,
          2.0
        ],
        "ProtocolName": "BOLD_resting1",
        "RepetitionTime": 2000.0,
        "Rows": 864,
        "SAR": 0.129895,
        "SamplesPerPixel": 1,
        "ScanOptions": [
          "PFP",
          "FS",
          "EXT"
        ],
        "ScanningSequence": "EP",
        "SequenceName": "epfid2d1_96",
        "SequenceVariant": [
          "SK",
          "SS"
        ],
        "SeriesDescription": "BOLD_resting1",
        "SeriesNumber": 14,
        "SeriesTime": "133612.045000",
        "SliceLocation": -43.8795,
        "SliceThickness": 2.0,
        "SmallestImagePixelValue": 0,
        "SoftwareVersions": "syngo MR E11",
        "SpacingBetweenSlices": 2.0,
        "SpecificCharacterSet": "ISO_IR 100",
        "StudyID": "1",
        "StudyTime": "125401.790000",
        "TransmitCoilName": "Body",
        "VariableFlipAngleFlag": "N",
        "WindowCenterWidthExplanation": "Algo1",
        "dBdt": 0.0
      },
      "slices": {}
    },
    "modality": "bold",
    "run_id": 1,
    "session_id": "01",
    "subject_id": "39",
    "task_id": "piper",
    "time": {
      "samples": {
        "AcquisitionNumber": [
          1,
          2,
          3,
          4,
          5,
          6,
          7,
          8,
          9,
          10,
          11,
          12,
          13,
          14,
          15,
          16,
          17,
          18,
          19,
          20,
          21,
          22,
          23,
          24,
          25,
          26,
          27,
          28,
          29,
          30,
          31,
          32,
          33,
          34,
          35,
          36,
          37,
          38,
          39,
          40,
          41,
          42,
          43,
          44,
          45,
          46,
          47,
          48,
          49,
          50,
          51,
          52,
          53,
          54,
          55,
          56,
          57,
          58,
          59,
          60,
          61,
          62,
          63,
          64,
          65,
          66,
          67,
          68,
          69,
          70,
          71,
          72,
          73,
          74,
          75,
          76,
          77,
          78,
          79,
          80,
          81,
          82,
          83,
          84,
          85,
          86,
          87,
          88,
          89,
          90,
          91,
          92,
          93,
          94,
          95,
          96,
          97,
          98,
          99,
          100,
          101,
          102,
          103,
          104,
          105,
          106,
          107,
          108,
          109,
          110,
          111,
          112,
          113,
          114,
          115,
          116,
          117,
          118,
          119,
          120,
          121,
          122,
          123,
          124,
          125,
          126,
          127,
          128,
          129,
          130,
          131,
          132,
          133,
          134,
          135,
          136,
          137,
          138,
          139,
          140,
          141,
          142,
          143,
          144,
          145,
          146,
          147,
          148,
          149,
          150
        ],
        "AcquisitionTime": [
          "133609.585000",
          "133611.585000",
          "133613.585000",
          "133615.585000",
          "133617.585000",
          "133619.585000",
          "133621.585000",
          "133623.585000",
          "133625.585000",
          "133627.585000",
          "133629.585000",
          "133631.585000",
          "133633.585000",
          "133635.585000",
          "133637.585000",
          "133639.585000",
          "133641.585000",
          "133643.585000",
          "133645.585000",
          "133647.585000",
          "133649.585000",
          "133651.585000",
          "133653.585000",
          "133655.585000",
          "133657.585000",
          "133659.585000",
          "133701.585000",
          "133703.585000",
          "133705.585000",
          "133707.585000",
          "133709.585000",
          "133711.585000",
          "133713.585000",
          "133715.585000",
          "133717.585000",
          "133719.585000",
          "133721.585000",
          "133723.585000",
          "133725.585000",
          "133727.585000",
          "133729.585000",
          "133731.585000",
          "133733.585000",
          "133735.585000",
          "133737.585000",
          "133739.585000",
          "133741.585000",
          "133743.585000",
          "133745.585000",
          "133747.585000",
          "133749.585000",
          "133751.585000",
          "133753.585000",
          "133755.585000",
          "133757.585000",
          "133759.585000",
          "133801.585000",
          "133803.585000",
          "133805.585000",
          "133807.585000",
          "133809.585000",
          "133811.585000",
          "133813.585000",
          "133815.585000",
          "133817.585000",
          "133819.585000",
          "133821.585000",
          "133823.585000",
          "133825.585000",
          "133827.585000",
          "133829.585000",
          "133831.585000",
          "133833.585000",
          "133835.585000",
          "133837.585000",
          "133839.585000",
          "133841.585000",
          "133843.585000",
          "133845.585000",
          "133847.585000",
          "133849.585000",
          "133851.585000",
          "133853.585000",
          "133855.585000",
          "133857.585000",
          "133859.585000",
          "133901.585000",
          "133903.585000",
          "133905.585000",
          "133907.585000",
          "133909.585000",
          "133911.585000",
          "133913.585000",
          "133915.585000",
          "133917.585000",
          "133919.585000",
          "133921.585000",
          "133923.585000",
          "133925.585000",
          "133927.585000",
          "133929.585000",
          "133931.585000",
          "133933.585000",
          "133935.585000",
          "133937.585000",
          "133939.585000",
          "133941.585000",
          "133943.585000",
          "133945.585000",
          "133947.585000",
          "133949.585000",
          "133951.585000",
          "133953.585000",
          "133955.585000",
          "133957.585000",
          "133959.585000",
          "134001.585000",
          "134003.585000",
          "134005.585000",
          "134007.585000",
          "134009.585000",
          "134011.585000",
          "134013.585000",
          "134015.585000",
          "134017.585000",
          "134019.585000",
          "134021.585000",
          "134023.585000",
          "134025.585000",
          "134027.585000",
          "134029.585000",
          "134031.585000",
          "134033.585000",
          "134035.585000",
          "134037.585000",
          "134039.585000",
          "134041.585000",
          "134043.585000",
          "134045.585000",
          "134047.585000",
          "134049.585000",
          "134051.585000",
          "134053.585000",
          "134055.585000",
          "134057.585000",
          "134059.585000",
          "134101.585000",
          "134103.585000",
          "134105.585000",
          "134107.585000"
        ],
        "ContentTime": [
          "133612.048000",
          "133614.045000",
          "133616.045000",
          "133618.045000",
          "133620.045000",
          "133622.045000",
          "133624.045000",
          "133626.045000",
          "133628.044000",
          "133630.044000",
          "133632.045000",
          "133634.045000",
          "133636.045000",
          "133638.045000",
          "133640.045000",
          "133642.045000",
          "133644.044000",
          "133646.044000",
          "133648.044000",
          "133650.045000",
          "133652.045000",
          "133654.070000",
          "133656.045000",
          "133658.045000",
          "133700.045000",
          "133702.044000",
          "133704.044000",
          "133706.045000",
          "133708.045000",
          "133710.045000",
          "133712.045000",
          "133714.045000",
          "133716.045000",
          "133718.045000",
          "133720.044000",
          "133722.044000",
          "133724.045000",
          "133726.045000",
          "133728.045000",
          "133730.045000",
          "133732.045000",
          "133734.045000",
          "133736.045000",
          "133738.044000",
          "133740.044000",
          "133742.045000",
          "133744.045000",
          "133746.045000",
          "133748.045000",
          "133750.045000",
          "133752.045000",
          "133754.044000",
          "133756.044000",
          "133758.044000",
          "133800.045000",
          "133802.045000",
          "133804.045000",
          "133806.045000",
          "133808.045000",
          "133810.045000",
          "133812.044000",
          "133814.044000",
          "133816.045000",
          "133818.045000",
          "133820.045000",
          "133822.045000",
          "133824.045000",
          "133826.045000",
          "133828.045000",
          "133830.044000",
          "133832.044000",
          "133834.045000",
          "133836.045000",
          "133838.045000",
          "133840.045000",
          "133842.045000",
          "133844.045000",
          "133846.045000",
          "133848.044000",
          "133850.044000",
          "133852.045000",
          "133854.045000",
          "133856.045000",
          "133858.045000",
          "133900.045000",
          "133902.045000",
          "133904.044000",
          "133906.044000",
          "133908.044000",
          "133910.045000",
          "133912.045000",
          "133914.045000",
          "133916.045000",
          "133918.045000",
          "133920.045000",
          "133922.044000",
          "133924.044000",
          "133926.045000",
          "133928.045000",
          "133930.045000",
          "133932.045000",
          "133934.045000",
          "133936.045000",
          "133938.045000",
          "133940.044000",
          "133942.044000",
          "133944.045000",
          "133946.045000",
          "133948.045000",
          "133950.045000",
          "133952.045000",
          "133954.045000",
          "133956.045000",
          "133958.044000",
          "134000.044000",
          "134002.045000",
          "134004.045000",
          "134006.045000",
          "134008.045000",
          "134010.045000",
          "134012.045000",
          "134014.044000",
          "134016.044000",
          "134018.045000",
          "134020.045000",
          "134022.045000",
          "134024.045000",
          "134026.045000",
          "134028.045000",
          "134030.045000",
          "134032.044000",
          "134034.044000",
          "134036.045000",
          "134038.045000",
          "134040.045000",
          "134042.065000",
          "134044.045000",
          "134046.045000",
          "134048.045000",
          "134050.044000",
          "134052.044000",
          "134054.045000",
          "134056.045000",
          "134058.045000",
          "134100.045000",
          "134102.045000",
          "134104.045000",
          "134106.045000",
          "134108.044000",
          "134110.044000"
        ],
        "InstanceCreationTime": [
          "133612.048000",
          "133614.045000",
          "133616.045000",
          "133618.045000",
          "133620.045000",
          "133622.045000",
          "133624.045000",
          "133626.045000",
          "133628.044000",
          "133630.044000",
          "133632.045000",
          "133634.045000",
          "133636.045000",
          "133638.045000",
          "133640.045000",
          "133642.045000",
          "133644.044000",
          "133646.044000",
          "133648.044000",
          "133650.045000",
          "133652.045000",
          "133654.070000",
          "133656.045000",
          "133658.045000",
          "133700.045000",
          "133702.044000",
          "133704.044000",
          "133706.045000",
          "133708.045000",
          "133710.045000",
          "133712.045000",
          "133714.045000",
          "133716.045000",
          "133718.045000",
          "133720.044000",
          "133722.044000",
          "133724.045000",
          "133726.045000",
          "133728.045000",
          "133730.045000",
          "133732.045000",
          "133734.045000",
          "133736.045000",
          "133738.044000",
          "133740.044000",
          "133742.045000",
          "133744.045000",
          "133746.045000",
          "133748.045000",
          "133750.045000",
          "133752.045000",
          "133754.044000",
          "133756.044000",
          "133758.044000",
          "133800.045000",
          "133802.045000",
          "133804.045000",
          "133806.045000",
          "133808.045000",
          "133810.045000",
          "133812.044000",
          "133814.044000",
          "133816.045000",
          "133818.045000",
          "133820.045000",
          "133822.045000",
          "133824.045000",
          "133826.045000",
          "133828.045000",
          "133830.044000",
          "133832.044000",
          "133834.045000",
          "133836.045000",
          "133838.045000",
          "133840.045000",
          "133842.045000",
          "133844.045000",
          "133846.045000",
          "133848.044000",
          "133850.044000",
          "133852.045000",
          "133854.045000",
          "133856.045000",
          "133858.045000",
          "133900.045000",
          "133902.045000",
          "133904.044000",
          "133906.044000",
          "133908.044000",
          "133910.045000",
          "133912.045000",
          "133914.045000",
          "133916.045000",
          "133918.045000",
          "133920.045000",
          "133922.044000",
          "133924.044000",
          "133926.045000",
          "133928.045000",
          "133930.045000",
          "133932.045000",
          "133934.045000",
          "133936.045000",
          "133938.045000",
          "133940.044000",
          "133942.044000",
          "133944.045000",
          "133946.045000",
          "133948.045000",
          "133950.045000",
          "133952.045000",
          "133954.045000",
          "133956.045000",
          "133958.044000",
          "134000.044000",
          "134002.045000",
          "134004.045000",
          "134006.045000",
          "134008.045000",
          "134010.045000",
          "134012.045000",
          "134014.044000",
          "134016.044000",
          "134018.045000",
          "134020.045000",
          "134022.045000",
          "134024.045000",
          "134026.045000",
          "134028.045000",
          "134030.045000",
          "134032.044000",
          "134034.044000",
          "134036.045000",
          "134038.045000",
          "134040.045000",
          "134042.065000",
          "134044.045000",
          "134046.045000",
          "134048.045000",
          "134050.044000",
          "134052.044000",
          "134054.045000",
          "134056.045000",
          "134058.045000",
          "134100.045000",
          "134102.045000",
          "134104.045000",
          "134106.045000",
          "134108.044000",
          "134110.044000"
        ],
        "InstanceNumber": [
          1,
          2,
          3,
          4,
          5,
          6,
          7,
          8,
          9,
          10,
          11,
          12,
          13,
          14,
          15,
          16,
          17,
          18,
          19,
          20,
          21,
          22,
          23,
          24,
          25,
          26,
          27,
          28,
          29,
          30,
          31,
          32,
          33,
          34,
          35,
          36,
          37,
          38,
          39,
          40,
          41,
          42,
          43,
          44,
          45,
          46,
          47,
          48,
          49,
          50,
          51,
          52,
          53,
          54,
          55,
          56,
          57,
          58,
          59,
          60,
          61,
          62,
          63,
          64,
          65,
          66,
          67,
          68,
          69,
          70,
          71,
          72,
          73,
          74,
          75,
          76,
          77,
          78,
          79,
          80,
          81,
          82,
          83,
          84,
          85,
          86,
          87,
          88,
          89,
          90,
          91,
          92,
          93,
          94,
          95,
          96,
          97,
          98,
          99,
          100,
          101,
          102,
          103,
          104,
          105,
          106,
          107,
          108,
          109,
          110,
          111,
          112,
          113,
          114,
          115,
          116,
          117,
          118,
          119,
          120,
          121,
          122,
          123,
          124,
          125,
          126,
          127,
          128,
          129,
          130,
          131,
          132,
          133,
          134,
          135,
          136,
          137,
          138,
          139,
          140,
          141,
          142,
          143,
          144,
          145,
          146,
          147,
          148,
          149,
          150
        ],
        "LargestImagePixelValue": [
          29671,
          29166,
          29322,
          29040,
          28827,
          28492,
          28870,
          29238,
          26071,
          27360,
          28242,
          29023,
          29569,
          29154,
          29547,
          29714,
          29005,
          29259,
          29179,
          29002,
          29080,
          29056,
          29043,
          29310,
          29866,
          29263,
          29411,
          29276,
          29345,
          29195,
          29249,
          28863,
          28960,
          28953,
          28987,
          29109,
          29026,
          28990,
          29135,
          28756,
          29071,
          28683,
          29021,
          29310,
          29071,
          29063,
          29124,
          28888,
          28893,
          29049,
          29019,
          28834,
          28850,
          28600,
          28724,
          29069,
          28758,
          28677,
          28905,
          28903,
          28982,
          29073,
          28733,
          28929,
          28737,
          29117,
          28745,
          28721,
          28977,
          28964,
          28895,
          29061,
          28753,
          28885,
          28422,
          28951,
          29199,
          28755,
          29021,
          28586,
          28713,
          29067,
          28857,
          28811,
          29438,
          28740,
          28608,
          28702,
          29869,
          28990,
          28634,
          28857,
          28962,
          28822,
          28903,
          28731,
          28837,
          29050,
          29212,
          29004,
          28795,
          28598,
          28509,
          29308,
          28571,
          28652,
          28822,
          28477,
          28727,
          29066,
          28687,
          28632,
          28904,
          28844,
          28632,
          28546,
          28587,
          28858,
          28565,
          28641,
          28850,
          28410,
          29015,
          28882,
          28702,
          28525,
          28930,
          28653,
          28657,
          29084,
          28862,
          28531,
          30851,
          29326,
          29151,
          29613,
          29064,
          27979,
          28200,
          28325,
          28555,
          29478,
          28356,
          30019,
          28938,
          28619,
          29919,
          29692,
          29542,
          29202
        ],
        "TriggerTime": [
          11662.5,
          13662.5,
          15662.5,
          17662.5,
          19662.5,
          21662.5,
          23662.5,
          25662.5,
          27662.5,
          29662.5,
          31662.5,
          33662.5,
          35662.5,
          37662.5,
          39662.5,
          41662.5,
          43662.5,
          45662.5,
          47662.5,
          49662.5,
          51662.5,
          53662.5,
          55662.5,
          57662.5,
          59662.5,
          61662.5,
          63662.5,
          65662.5,
          67662.5,
          69662.5,
          71662.5,
          73662.5,
          75662.5,
          77662.5,
          79662.5,
          81662.5,
          83662.5,
          85662.5,
          87662.5,
          89662.5,
          91662.5,
          93662.5,
          95662.5,
          97662.5,
          99662.5,
          101663.0,
          103663.0,
          105663.0,
          107663.0,
          109663.0,
          111663.0,
          113663.0,
          115663.0,
          117663.0,
          119663.0,
          121663.0,
          123663.0,
          125663.0,
          127663.0,
          129663.0,
          131663.0,
          133663.0,
          135663.0,
          137663.0,
          139663.0,
          141663.0,
          143663.0,
          145663.0,
          147663.0,
          149663.0,
          151663.0,
          153663.0,
          155663.0,
          157663.0,
          159663.0,
          161663.0,
          163663.0,
          165663.0,
          167663.0,
          169663.0,
          171663.0,
          173663.0,
          175663.0,
          177663.0,
          179663.0,
          181663.0,
          183663.0,
          185663.0,
          187663.0,
          189663.0,
          191663.0,
          193663.0,
          195663.0,
          197663.0,
          199663.0,
          201663.0,
          203663.0,
          205663.0,
          207663.0,
          209663.0,
          211663.0,
          213663.0,
          215663.0,
          217663.0,
          219663.0,
          221663.0,
          223663.0,
          225663.0,
          227663.0,
          229663.0,
          231663.0,
          233663.0,
          235663.0,
          237663.0,
          239663.0,
          241663.0,
          243663.0,
          245663.0,
          247663.0,
          249663.0,
          251663.0,
          253663.0,
          255663.0,
          257663.0,
          259663.0,
          261663.0,
          263663.0,
          265663.0,
          267663.0,
          269663.0,
          271663.0,
          273663.0,
          275663.0,
          277663.0,
          279663.0,
          281663.0,
          283663.0,
          285663.0,
          287663.0,
          289663.0,
          291663.0,
          293663.0,
          295663.0,
          297663.0,
          299663.0,
          301663.0,
          303663.0,
          305663.0,
          307663.0,
          309663.0
        ],
        "WindowCenter": [
          8793.0,
          8765.0,
          8780.0,
          8766.0,
          8757.0,
          8749.0,
          8740.0,
          8755.0,
          8618.0,
          8760.0,
          8754.0,
          8749.0,
          8752.0,
          8746.0,
          8733.0,
          8750.0,
          8763.0,
          8753.0,
          8745.0,
          8762.0,
          8735.0,
          8750.0,
          8744.0,
          8744.0,
          8768.0,
          8760.0,
          8741.0,
          8743.0,
          8748.0,
          8763.0,
          8751.0,
          8733.0,
          8733.0,
          8744.0,
          8750.0,
          8740.0,
          8763.0,
          8770.0,
          8742.0,
          8743.0,
          8722.0,
          8721.0,
          8749.0,
          8777.0,
          8788.0,
          8778.0,
          8760.0,
          8754.0,
          8764.0,
          8750.0,
          8748.0,
          8742.0,
          8722.0,
          8732.0,
          8751.0,
          8749.0,
          8731.0,
          8729.0,
          8730.0,
          8751.0,
          8759.0,
          8752.0,
          8763.0,
          8743.0,
          8753.0,
          8751.0,
          8753.0,
          8754.0,
          8762.0,
          8744.0,
          8752.0,
          8744.0,
          8753.0,
          8741.0,
          8754.0,
          8763.0,
          8761.0,
          8761.0,
          8753.0,
          8749.0,
          8774.0,
          8754.0,
          8745.0,
          8743.0,
          8747.0,
          8751.0,
          8754.0,
          8744.0,
          8773.0,
          8731.0,
          8726.0,
          8732.0,
          8729.0,
          8733.0,
          8743.0,
          8736.0,
          8751.0,
          8742.0,
          8744.0,
          8743.0,
          8746.0,
          8757.0,
          8727.0,
          8745.0,
          8745.0,
          8752.0,
          8742.0,
          8733.0,
          8734.0,
          8759.0,
          8742.0,
          8736.0,
          8759.0,
          8752.0,
          8739.0,
          8756.0,
          8755.0,
          8752.0,
          8755.0,
          8743.0,
          8762.0,
          8768.0,
          8755.0,
          8764.0,
          8755.0,
          8747.0,
          8763.0,
          8754.0,
          8745.0,
          8769.0,
          8746.0,
          8690.0,
          8853.0,
          8798.0,
          8751.0,
          8724.0,
          8715.0,
          8702.0,
          8672.0,
          8623.0,
          8735.0,
          8762.0,
          8749.0,
          8735.0,
          8751.0,
