{
  "aor": 0.024703866666666668,
  "aqi": 0.010830946533333332,
  "bids_meta": {
    "ConversionSoftware": "dcm2niix",
    "ConversionSoftwareVersion": "v1.0.20170207",
    "EchoTime": 0.0302,
    "EffectiveEchoSpacing": 0.000640002,
    "FlipAngle": 90,
    "ImageType": [
      "ORIGINAL",
      "PRIMARY",
      "M",
      "MB",
      "ND",
      "MOSAIC"
    ],
    "MagneticFieldStrength": 3,
    "Manufacturer": "Siemens",
    "ManufacturersModelName": "Prisma",
    "PhaseEncodingDirection": "j-",
    "ProcedureStepDescription": "CAMRIS_CHOP",
    "ProtocolName": "BOLD_resting1",
    "RepetitionTime": 2,
    "SliceTiming": [
      0,
      0.08,
      0.16,
      0.2375,
      0.3175,
      0.3975,
      0.475,
      0.555,
      0.635,
      0.7125,
      0.7925,
      0.8725,
      0.95,
      1.03,
      1.11,
      1.1875,
      1.2675,
      1.3475,
      1.425,
      1.505,
      1.585,
      1.665,
      1.7425,
      1.8225,
      1.9025,
      0,
      0.08,
      0.16,
      0.2375,
      0.3175,
      0.3975,
      0.475,
      0.555,
      0.635,
      0.7125,
      0.7925,
      0.8725,
      0.95,
      1.03,
      1.11,
      1.1875,
      1.2675,
      1.3475,
      1.425,
      1.505,
      1.585,
      1.665,
      1.7425,
      1.8225,
      1.9025,
      0,
      0.08,
      0.16,
      0.2375,
      0.3175,
      0.3975,
      0.475,
      0.555,
      0.635,
      0.7125,
      0.7925,
      0.8725,
      0.95,
      1.03,
      1.11,
      1.1875,
      1.2675,
      1.3475,
      1.425,
      1.505,
      1.585,
      1.665,
      1.7425,
      1.8225,
      1.9025
    ],
    "TaskName": "piper",
    "dataset": "ds004228",
    "dcmmeta_affine": [
      [
        -2.0,
        0.0,
        0.0,
        97.21099853515625
      ],
      [
        0.0,
        2.0,
        0.0,
        -75.23500061035156
      ],
      [
        0.0,
        0.0,
        2.0,
        -61.28810119628906
      ],
      [
        0.0,
        0.0,
        0.0,
        1.0
      ]
    ],
    "dcmmeta_reorient_transform": [
      [
        0.0,
        -1.0,
        0.0,
        95.0
      ],
      [
        1.0,
        0.0,
        0.0,
        0.0
      ],
      [
        0.0,
        0.0,
        1.0,
        0.0
      ],
      [
        0.0,
        0.0,
        0.0,
        1.0
      ]
    ],
    "dcmmeta_shape": [
      96,
      96,
      75,
      150
    ],
    "dcmmeta_slice_dim": 2,
    "dcmmeta_version": 0.6,
    "global": {
      "const": {
        "AcquisitionMatrix": [
          96,
          0,
          0,
          96
        ],
        "AngioFlag": "N",
        "BitsAllocated": 16,
        "BitsStored": 16,
        "BodyPartExamined": "BRAIN",
        "CardiacNumberOfImages": 1,
        "Columns": 864,
        "EchoNumbers": 1,
        "EchoTime": 30.2,
        "EchoTrainLength": 84,
        "FlipAngle": 90.0,
        "HighBit": 15,
        "ImageOrientationPatient": [
          1.0,
          0.0,
          0.0,
          0.0,
          1.0,
          0.0
        ],
        "ImagePositionPatient": [
          -865.211,
          -882.765,
          -61.2881
        ],
        "ImageType": [
          "ORIGINAL",
          "PRIMARY",
          "M",
          "MB",
          "ND",
          "MOSAIC"
        ],
        "ImagedNucleus": "1H",
        "ImagingFrequency": 123.255,
        "InPlanePhaseEncodingDirection": "COL",
        "MRAcquisitionType": "2D",
        "MagneticFieldStrength": 3.0,
        "Manufacturer": "SIEMENS",
        "ManufacturerModelName": "Prisma",
        "Modality": "MR",
        "NominalInterval": 0,
        "NumberOfAverages": 1.0,
        "NumberOfFrames": 1,
        "NumberOfPhaseEncodingSteps": 84,
        "PercentPhaseFieldOfView": 100.0,
        "PercentSampling": 100.0,
        "PerformedProcedureStepStartTime": "112550.456000",
        "PhotometricInterpretation": "MONOCHROME2",
        "PixelBandwidth": 1860.0,
        "PixelRepresentation": 0,
        "PixelSpacing": [
          2.0,
          2.0
        ],
        "ProtocolName": "BOLD_resting1",
        "RepetitionTime": 2000.0,
        "Rows": 864,
        "SAR": 0.155547,
        "SamplesPerPixel": 1,
        "ScanOptions": [
          "PFP",
          "FS",
          "EXT"
        ],
        "ScanningSequence": "EP",
        "SequenceName": "epfid2d1_96",
        "SequenceVariant": [
          "SK",
          "SS"
        ],
        "SeriesDescription": "BOLD_resting1",
        "SeriesNumber": 24,
        "SeriesTime": "121702.087000",
        "SliceLocation": -61.2881,
        "SliceThickness": 2.0,
        "SmallestImagePixelValue": 0,
        "SoftwareVersions": "syngo MR E11",
        "SpacingBetweenSlices": 2.0,
        "SpecificCharacterSet": "ISO_IR 100",
        "StudyID": "1",
        "StudyTime": "112550.364000",
        "TransmitCoilName": "Body",
        "VariableFlipAngleFlag": "N",
        "WindowCenterWidthExplanation": "Algo1",
        "dBdt": 0.0
      },
      "slices": {}
    },
    "modality": "bold",
    "run_id": 1,
    "session_id": "01",
    "subject_id": "57",
    "task_id": "piper",
    "time": {
      "samples": {
        "AcquisitionNumber": [
          1,
          2,
          3,
          4,
          5,
          6,
          7,
          8,
          9,
          10,
          11,
          12,
          13,
          14,
          15,
          16,
          17,
          18,
          19,
          20,
          21,
          22,
          23,
          24,
          25,
          26,
          27,
          28,
          29,
          30,
          31,
          32,
          33,
          34,
          35,
          36,
          37,
          38,
          39,
          40,
          41,
          42,
          43,
          44,
          45,
          46,
          47,
          48,
          49,
          50,
          51,
          52,
          53,
          54,
          55,
          56,
          57,
          58,
          59,
          60,
          61,
          62,
          63,
          64,
          65,
          66,
          67,
          68,
          69,
          70,
          71,
          72,
          73,
          74,
          75,
          76,
          77,
          78,
          79,
          80,
          81,
          82,
          83,
          84,
          85,
          86,
          87,
          88,
          89,
          90,
          91,
          92,
          93,
          94,
          95,
          96,
          97,
          98,
          99,
          100,
          101,
          102,
          103,
          104,
          105,
          106,
          107,
          108,
          109,
          110,
          111,
          112,
          113,
          114,
          115,
          116,
          117,
          118,
          119,
          120,
          121,
          122,
          123,
          124,
          125,
          126,
          127,
          128,
          129,
          130,
          131,
          132,
          133,
          134,
          135,
          136,
          137,
          138,
          139,
          140,
          141,
          142,
          143,
          144,
          145,
          146,
          147,
          148,
          149,
          150
        ],
        "AcquisitionTime": [
          "121659.265000",
          "121701.265000",
          "121703.265000",
          "121705.265000",
          "121707.265000",
          "121709.265000",
          "121711.265000",
          "121713.265000",
          "121715.265000",
          "121717.265000",
          "121719.265000",
          "121721.265000",
          "121723.265000",
          "121725.265000",
          "121727.265000",
          "121729.265000",
          "121731.265000",
          "121733.265000",
          "121735.265000",
          "121737.265000",
          "121739.265000",
          "121741.265000",
          "121743.265000",
          "121745.265000",
          "121747.265000",
          "121749.265000",
          "121751.265000",
          "121753.265000",
          "121755.265000",
          "121757.265000",
          "121759.265000",
          "121801.265000",
          "121803.265000",
          "121805.265000",
          "121807.265000",
          "121809.265000",
          "121811.265000",
          "121813.265000",
          "121815.265000",
          "121817.265000",
          "121819.265000",
          "121821.265000",
          "121823.265000",
          "121825.265000",
          "121827.265000",
          "121829.265000",
          "121831.265000",
          "121833.265000",
          "121835.265000",
          "121837.265000",
          "121839.265000",
          "121841.265000",
          "121843.265000",
          "121845.265000",
          "121847.265000",
          "121849.265000",
          "121851.265000",
          "121853.265000",
          "121855.265000",
          "121857.265000",
          "121859.265000",
          "121901.265000",
          "121903.265000",
          "121905.265000",
          "121907.265000",
          "121909.265000",
          "121911.265000",
          "121913.265000",
          "121915.265000",
          "121917.265000",
          "121919.265000",
          "121921.265000",
          "121923.265000",
          "121925.265000",
          "121927.265000",
          "121929.265000",
          "121931.265000",
          "121933.265000",
          "121935.265000",
          "121937.265000",
          "121939.265000",
          "121941.265000",
          "121943.265000",
          "121945.265000",
          "121947.265000",
          "121949.265000",
          "121951.265000",
          "121953.265000",
          "121955.265000",
          "121957.265000",
          "121959.265000",
          "122001.265000",
          "122003.265000",
          "122005.265000",
          "122007.265000",
          "122009.265000",
          "122011.265000",
          "122013.265000",
          "122015.265000",
          "122017.265000",
          "122019.265000",
          "122021.265000",
          "122023.265000",
          "122025.265000",
          "122027.265000",
          "122029.265000",
          "122031.265000",
          "122033.265000",
          "122035.265000",
          "122037.265000",
          "122039.265000",
          "122041.265000",
          "122043.265000",
          "122045.265000",
          "122047.265000",
          "122049.265000",
          "122051.265000",
          "122053.265000",
          "122055.265000",
          "122057.265000",
          "122059.265000",
          "122101.265000",
          "122103.265000",
          "122105.265000",
          "122107.265000",
          "122109.265000",
          "122111.265000",
          "122113.265000",
          "122115.265000",
          "122117.265000",
          "122119.265000",
          "122121.265000",
          "122123.265000",
          "122125.265000",
          "122127.265000",
          "122129.265000",
          "122131.265000",
          "122133.265000",
          "122135.265000",
          "122137.265000",
          "122139.265000",
          "122141.265000",
          "122143.265000",
          "122145.265000",
          "122147.265000",
          "122149.265000",
          "122151.265000",
          "122153.265000",
          "122155.265000",
          "122157.265000"
        ],
        "ContentTime": [
          "121702.091000",
          "121704.086000",
          "121706.086000",
          "121708.086000",
          "121710.086000",
          "121712.086000",
          "121714.087000",
          "121716.086000",
          "121718.086000",
          "121720.086000",
          "121722.086000",
          "121724.086000",
          "121726.086000",
          "121728.086000",
          "121730.086000",
          "121732.087000",
          "121734.086000",
          "121736.086000",
          "121738.086000",
          "121740.086000",
          "121742.086000",
          "121744.086000",
          "121746.086000",
          "121748.086000",
          "121750.087000",
          "121752.086000",
          "121754.086000",
          "121756.086000",
          "121758.086000",
          "121800.086000",
          "121802.086000",
          "121804.086000",
          "121806.086000",
          "121808.087000",
          "121810.086000",
          "121812.086000",
          "121814.086000",
          "121816.086000",
          "121818.086000",
          "121820.086000",
          "121822.086000",
          "121824.087000",
          "121826.086000",
          "121828.086000",
          "121830.086000",
          "121832.086000",
          "121834.086000",
          "121836.086000",
          "121838.086000",
          "121840.086000",
          "121842.107000",
          "121844.086000",
          "121846.086000",
          "121848.086000",
          "121850.086000",
          "121852.086000",
          "121854.086000",
          "121856.086000",
          "121858.086000",
          "121900.087000",
          "121902.087000",
          "121904.086000",
          "121906.086000",
          "121908.086000",
          "121910.086000",
          "121912.087000",
          "121914.086000",
          "121916.086000",
          "121918.087000",
          "121920.086000",
          "121922.086000",
          "121924.086000",
          "121926.086000",
          "121928.086000",
          "121930.086000",
          "121932.086000",
          "121934.087000",
          "121936.086000",
          "121938.086000",
          "121940.086000",
          "121942.086000",
          "121944.086000",
          "121946.086000",
          "121948.086000",
          "121950.106000",
          "121952.088000",
          "121954.086000",
          "121956.086000",
          "121958.086000",
          "122000.086000",
          "122002.086000",
          "122004.086000",
          "122006.086000",
          "122008.086000",
          "122010.087000",
          "122012.086000",
          "122014.086000",
          "122016.086000",
          "122018.086000",
          "122020.086000",
          "122022.086000",
          "122024.086000",
          "122026.087000",
          "122028.087000",
          "122030.086000",
          "122032.086000",
          "122034.086000",
          "122036.086000",
          "122038.086000",
          "122040.086000",
          "122042.086000",
          "122044.087000",
          "122046.086000",
          "122048.086000",
          "122050.086000",
          "122052.086000",
          "122054.086000",
          "122056.086000",
          "122058.086000",
          "122100.086000",
          "122102.087000",
          "122104.086000",
          "122106.086000",
          "122108.086000",
          "122110.086000",
          "122112.086000",
          "122114.086000",
          "122116.086000",
          "122118.086000",
          "122120.087000",
          "122122.086000",
          "122124.086000",
          "122126.086000",
          "122128.086000",
          "122130.086000",
          "122132.086000",
          "122134.086000",
          "122136.087000",
          "122138.087000",
          "122140.086000",
          "122142.086000",
          "122144.086000",
          "122146.086000",
          "122148.086000",
          "122150.086000",
          "122152.086000",
          "122154.087000",
          "122156.086000",
          "122158.086000",
          "122159.883000"
        ],
        "InstanceCreationTime": [
          "121702.091000",
          "121704.086000",
          "121706.086000",
          "121708.086000",
          "121710.086000",
          "121712.086000",
          "121714.087000",
          "121716.086000",
          "121718.086000",
          "121720.086000",
          "121722.086000",
          "121724.086000",
          "121726.086000",
          "121728.086000",
          "121730.086000",
          "121732.087000",
          "121734.086000",
          "121736.086000",
          "121738.086000",
          "121740.086000",
          "121742.086000",
          "121744.086000",
          "121746.086000",
          "121748.086000",
          "121750.087000",
          "121752.086000",
          "121754.086000",
          "121756.086000",
          "121758.086000",
          "121800.086000",
          "121802.086000",
          "121804.086000",
          "121806.086000",
          "121808.087000",
          "121810.086000",
          "121812.086000",
          "121814.086000",
          "121816.086000",
          "121818.086000",
          "121820.086000",
          "121822.086000",
          "121824.087000",
          "121826.086000",
          "121828.086000",
          "121830.086000",
          "121832.086000",
          "121834.086000",
          "121836.086000",
          "121838.086000",
          "121840.086000",
          "121842.107000",
          "121844.086000",
          "121846.086000",
          "121848.086000",
          "121850.086000",
          "121852.086000",
          "121854.086000",
          "121856.086000",
          "121858.086000",
          "121900.087000",
          "121902.087000",
          "121904.086000",
          "121906.086000",
          "121908.086000",
          "121910.086000",
          "121912.087000",
          "121914.086000",
          "121916.086000",
          "121918.087000",
          "121920.086000",
          "121922.086000",
          "121924.086000",
          "121926.086000",
          "121928.086000",
          "121930.086000",
          "121932.086000",
          "121934.087000",
          "121936.086000",
          "121938.086000",
          "121940.086000",
          "121942.086000",
          "121944.086000",
          "121946.086000",
          "121948.086000",
          "121950.106000",
          "121952.088000",
          "121954.086000",
          "121956.086000",
          "121958.086000",
          "122000.086000",
          "122002.086000",
          "122004.086000",
          "122006.086000",
          "122008.086000",
          "122010.087000",
          "122012.086000",
          "122014.086000",
          "122016.086000",
          "122018.086000",
          "122020.086000",
          "122022.086000",
          "122024.086000",
          "122026.087000",
          "122028.087000",
          "122030.086000",
          "122032.086000",
          "122034.086000",
          "122036.086000",
          "122038.086000",
          "122040.086000",
          "122042.086000",
          "122044.087000",
          "122046.086000",
          "122048.086000",
          "122050.086000",
          "122052.086000",
          "122054.086000",
          "122056.086000",
          "122058.086000",
          "122100.086000",
          "122102.087000",
          "122104.086000",
          "122106.086000",
          "122108.086000",
          "122110.086000",
          "122112.086000",
          "122114.086000",
          "122116.086000",
          "122118.086000",
          "122120.087000",
          "122122.086000",
          "122124.086000",
          "122126.086000",
          "122128.086000",
          "122130.086000",
          "122132.086000",
          "122134.086000",
          "122136.087000",
          "122138.087000",
          "122140.086000",
          "122142.086000",
          "122144.086000",
          "122146.086000",
          "122148.086000",
          "122150.086000",
          "122152.086000",
          "122154.087000",
          "122156.086000",
          "122158.086000",
          "122159.883000"
        ],
        "InstanceNumber": [
          1,
          2,
          3,
          4,
          5,
          6,
          7,
          8,
          9,
          10,
          11,
          12,
          13,
          14,
          15,
          16,
          17,
          18,
          19,
          20,
          21,
          22,
          23,
          24,
          25,
          26,
          27,
          28,
          29,
          30,
          31,
          32,
          33,
          34,
          35,
          36,
          37,
          38,
          39,
          40,
          41,
          42,
          43,
          44,
          45,
          46,
          47,
          48,
          49,
          50,
          51,
          52,
          53,
          54,
          55,
          56,
          57,
          58,
          59,
          60,
          61,
          62,
          63,
          64,
          65,
          66,
          67,
          68,
          69,
          70,
          71,
          72,
          73,
          74,
          75,
          76,
          77,
          78,
          79,
          80,
          81,
          82,
          83,
          84,
          85,
          86,
          87,
          88,
          89,
          90,
          91,
          92,
          93,
          94,
          95,
          96,
          97,
          98,
          99,
          100,
          101,
          102,
          103,
          104,
          105,
          106,
          107,
          108,
          109,
          110,
          111,
          112,
          113,
          114,
          115,
          116,
          117,
          118,
          119,
          120,
          121,
          122,
          123,
          124,
          125,
          126,
          127,
          128,
          129,
          130,
          131,
          132,
          133,
          134,
          135,
          136,
          137,
          138,
          139,
          140,
          141,
          142,
          143,
          144,
          145,
          146,
          147,
          148,
          149,
          150
        ],
        "LargestImagePixelValue": [
          22417,
          21595,
          21295,
          21221,
          20947,
          20984,
          21612,
          21472,
          22292,
          21843,
          21335,
          20753,
          21472,
          21044,
          20914,
          21242,
          21347,
          20883,
          21481,
          21587,
          22258,
          22053,
          22200,
          20004,
          21922,
          22078,
          21549,
          21801,
          21464,
          21153,
          20321,
          21536,
          21577,
          22083,
          21576,
          21765,
          21799,
          20107,
          21743,
          19962,
          20298,
          20163,
          19973,
          20431,
          21171,
          22174,
          22012,
          22377,
          21892,
          21704,
          21795,
          20293,
          20302,
          20909,
          20548,
          21117,
          21017,
          21650,
          20062,
          20412,
          21096,
          22274,
          22214,
          22297,
          21988,
          21789,
          20367,
          20185,
          20517,
          21645,
          20943,
          21060,
          21805,
          20148,
          20236,
          20100,
          21090,
          20890,
          22389,
          20870,
          20537,
          22098,
          22113,
          20126,
          19930,
          21751,
          20783,
          20068,
          21643,
          21019,
          22616,
          21987,
          22154,
          20132,
          20927,
          22003,
          21419,
          20304,
          20092,
          21492,
          21108,
          20120,
          20041,
          22132,
          20176,
          19375,
          21676,
          22061,
          21264,
          21235,
          21207,
          21281,
          21058,
          20695,
          22621,
          20422,
          20650,
          21137,
          21172,
          20727,
          22008,
          21901,
          20435,
          20139,
          20629,
          20956,
          22470,
          22807,
          20734,
          21928,
          21657,
          22000,
          22451,
          22534,
          22261,
          20670,
          20465,
          20251,
          20760,
          21160,
          20544,
          21161,
          20354,
          19692,
          21168,
          19863,
          22263,
          21853,
          22474,
          21880
        ],
        "TriggerTime": [
          11652.5,
          13652.5,
          15652.5,
          17652.5,
          19652.5,
          21652.5,
          23652.5,
          25652.5,
          27652.5,
          29652.5,
          31652.5,
          33652.5,
          35652.5,
          37652.5,
          39652.5,
          41652.5,
          43652.5,
          45652.5,
          47652.5,
          49652.5,
          51652.5,
          53652.5,
          55652.5,
          57652.5,
          59652.5,
          61652.5,
          63652.5,
          65652.5,
          67652.5,
          69652.5,
          71652.5,
          73652.5,
          75652.5,
          77652.5,
          79652.5,
          81652.5,
          83652.5,
          85652.5,
          87652.5,
          89652.5,
          91652.5,
          93652.5,
          95652.5,
          97652.5,
          99652.5,
          101653.0,
          103653.0,
          105653.0,
          107653.0,
          109653.0,
          111653.0,
          113653.0,
          115653.0,
          117653.0,
          119653.0,
          121653.0,
          123653.0,
          125653.0,
          127653.0,
          129653.0,
          131653.0,
          133653.0,
          135653.0,
          137653.0,
          139653.0,
          141653.0,
          143653.0,
          145653.0,
          147653.0,
          149653.0,
          151653.0,
          153653.0,
          155653.0,
          157653.0,
          159653.0,
          161653.0,
          163653.0,
          165653.0,
          167653.0,
          169653.0,
          171653.0,
          173653.0,
          175653.0,
          177653.0,
          179653.0,
          181653.0,
          183653.0,
          185653.0,
          187653.0,
          189653.0,
          191653.0,
          193653.0,
          195653.0,
          197653.0,
          199653.0,
          201653.0,
          203653.0,
          205653.0,
          207653.0,
          209653.0,
          211653.0,
          213653.0,
          215653.0,
          217653.0,
          219653.0,
          221653.0,
          223653.0,
          225653.0,
          227653.0,
          229653.0,
          231653.0,
          233653.0,
          235653.0,
          237653.0,
          239653.0,
          241653.0,
          243653.0,
          245653.0,
          247653.0,
          249653.0,
          251653.0,
          253653.0,
          255653.0,
          257653.0,
          259653.0,
          261653.0,
          263653.0,
          265653.0,
          267653.0,
          269653.0,
          271653.0,
          273653.0,
          275653.0,
          277653.0,
          279653.0,
          281653.0,
          283653.0,
          285653.0,
          287653.0,
          289653.0,
          291653.0,
          293653.0,
          295653.0,
          297653.0,
          299653.0,
          301653.0,
          303653.0,
          305653.0,
          307653.0,
          309653.0
        ],
        "WindowCenter": [
          7759.0,
          7732.0,
          7745.0,
          7725.0,
          7716.0,
          7746.0,
          7743.0,
          7741.0,
          7758.0,
          7730.0,
          7731.0,
          7745.0,
          7741.0,
          7732.0,
          7736.0,
          7723.0,
          7731.0,
          7725.0,
          7720.0,
          7730.0,
          7755.0,
          7737.0,
          7749.0,
          7708.0,
          7740.0,
          7749.0,
          7731.0,
          7741.0,
          7730.0,
          7742.0,
          7737.0,
          7754.0,
          7775.0,
          7760.0,
          7733.0,
          7750.0,
          7730.0,
          7708.0,
          7750.0,
          7708.0,
          7717.0,
          7730.0,
          7721.0,
          7740.0,
          7755.0,
          7766.0,
          7781.0,
          7767.0,
          7740.0,
          7751.0,
          7748.0,
          7726.0,
          7740.0,
          7748.0,
          7739.0,
          7744.0,
          7723.0,
          7761.0,
          7719.0,
          7738.0,
          7769.0,
          7759.0,
          7740.0,
          7749.0,
          7738.0,
          7762.0,
          7738.0,
          7752.0,
          7762.0,
          7755.0,
          7738.0,
          7746.0,
          7742.0,
          7728.0,
          7732.0,
          7732.0,
          7756.0,
          7727.0,
          7758.0,
          7716.0,
          7726.0,
          7750.0,
          7737.0,
          7707.0,
          7723.0,
          7751.0,
          7725.0,
          7721.0,
          7753.0,
          7747.0,
          7769.0,
          7753.0,
          7750.0,
          7735.0,
          7748.0,
          7784.0,
          7746.0,
          7721.0,
          7734.0,
          7754.0,
          7743.0,
          7741.0,
          7763.0,
          7795.0,
          7736.0,
          7440.0,
          7171.0,
          7701.0,
          7649.0,
          7584.0,
          7537.0,
          7524.0,
          7513.0,
          7593.0,
          7692.0,
          7696.0,
          7694.0,
          7671.0,
          7640.0,
          7637.0,
          7663.0,
          7688.0,
          7681.0,
          7663.0,
          7684.0,
          7672.0,
          7685.0,
          7693.0,
          7684.0,
          7696.0,
          7687.0,
          7693.0,
          7703.0,
          7692.0,
          7693.0,
          7671.0,
          7663.0,
          7653.0,
          7683.0,
          7666.0,
          7661.0,
          7655.0,
          7601.0,
          7443.0,
